Wavelength	11H00003.asd
325	 7.4020625521816E-05 
326	 7.48129129429307E-05 
327	 6.26094961015604E-05 
328	 4.61160418363879E-05 
329	 5.60822686880031E-05 
330	 5.9689331397507E-05 
331	 3.03870760326424E-05 
332	 2.19067927008993E-05 
333	 2.72894213437789E-05 
334	 5.84554249073842E-06 
335	-3.08869548276709E-06 
336	 1.07830265592762E-05 
337	 2.57565538266237E-05 
338	 4.47228061284043E-05 
339	 7.0024187852511E-05 
340	 7.2081648961437E-05 
341	 5.17270386838487E-05 
342	 1.76955964601432E-05 
343	 2.29457224339881E-05 
344	 7.37563951075155E-05 
345	 9.08477748531381E-05 
346	 9.27143580972503E-05 
347	 1.03793552712407E-04 
348	 1.0892852477292E-04 
349	 1.02665545532083E-04 
350	 7.52344707828557E-05 
351	 5.34618794591531E-05 
352	 4.89896315789758E-05 
353	 5.32935309976408E-05 
354	 6.03374285595884E-05 
355	 6.40643654737161E-05 
356	 6.63762809994423E-05 
357	 6.67478282296052E-05 
358	 6.30408519748482E-05 
359	 5.84332435217475E-05 
360	 5.46736133716423E-05 
361	 5.07343446735489E-05 
362	 4.73938017462441E-05 
363	 4.5595666253672E-05 
364	 5.11127970064308E-05 
365	 6.0621336658044E-05 
366	 5.47458675172538E-05 
367	 5.91526296732026E-05 
368	 8.62610372591882E-05 
369	 8.56262392483298E-05 
370	 6.51746181517518E-05 
371	 5.18435271886094E-05 
372	 5.74328529092046E-05 
373	 8.02216528013759E-05 
374	 9.45074329520906E-05 
375	 8.81911544612462E-05 
376	 5.68847463970094E-05 
377	 6.26268519581707E-05 
378	 9.19748720369562E-05 
379	 8.66594283524734E-05 
380	 9.2742056314105E-05 
381	 1.15865103988652E-04 
382	 1.05467723847413E-04 
383	 8.95145891884357E-05 
384	 9.83258194860856E-05 
385	 1.05834195899497E-04 
386	 1.09661436622021E-04 
387	 1.17666317588199E-04 
388	 1.24715308218545E-04 
389	 1.29702946569428E-04 
390	 1.40151498889713E-04 
391	 1.49123254232408E-04 
392	 1.47590862587688E-04 
393	 1.57295632011861E-04 
394	 1.75329591632086E-04 
395	 1.76090496084125E-04 
396	 1.76164310143341E-04 
397	 1.84509620634457E-04 
398	 1.95317383143001E-04 
399	 2.03350017982024E-04 
400	 2.01461199646122E-04 
401	 2.01368184461614E-04 
402	 2.09878032822379E-04 
403	 2.38471040043995E-04 
404	 2.65199184476954E-04 
405	 2.75663997205802E-04 
406	 2.98953902682262E-04 
407	 3.26587614957001E-04 
408	 3.28821995836665E-04 
409	 3.49456800021636E-04 
410	 3.98255569556088E-04 
411	 4.47164093435284E-04 
412	 4.94751194240056E-04 
413	 5.4246980911226E-04 
414	 6.1598300514093E-04 
415	 7.08207536302788E-04 
416	 7.84199098677876E-04 
417	 8.75332739461842E-04 
418	 9.97587237647126E-04 
419	 1.15340812697704E-03 
420	 1.33371390537576E-03 
421	 1.52567231215128E-03 
422	 1.73744919588065E-03 
423	 1.97824485893545E-03 
424	 2.26524835442996E-03 
425	 2.59015194405534E-03 
426	 2.94770903272958E-03 
427	 3.33571771194664E-03 
428	 3.76926329039593E-03 
429	 4.27527620390072E-03 
430	 4.82859423409238E-03 
431	 5.42613651722004E-03 
432	 6.08646271212293E-03 
433	 6.81042955997153E-03 
434	 7.60007549718566E-03 
435	 8.46515467290559E-03 
436	 9.40674179301505E-03 
437	 1.04209720282484E-02 
438	 1.15112533994439E-02 
439	 1.26709182082407E-02 
440	 1.38659432298969E-02 
441	 1.50808746864144E-02 
442	 1.63021344442432E-02 
443	 1.74663955105991E-02 
444	 1.85049655056045E-02 
445	 0.019319684167273 
446	 1.98705774806978E-02 
447	 2.01226025444241E-02 
448	 2.00806024292682E-02 
449	 0.019724279960103 
450	 0.019010541125063 
451	 1.80452448136791E-02 
452	 1.69089266243293E-02 
453	 1.57029874445987E-02 
454	 1.44857392450041E-02 
455	 1.33125257392666E-02 
456	 1.21994270901624E-02 
457	 1.11866855731227E-02 
458	 1.03473543276893E-02 
459	 9.62407667925165E-03 
460	 8.98212780343274E-03 
461	 8.39367939492407E-03 
462	 7.86697140924367E-03 
463	 7.42005881981762E-03 
464	 6.98520424359696E-03 
465	 6.54990357785427E-03 
466	 6.15026644972777E-03 
467	 5.77089656662899E-03 
468	 5.40391357434952E-03 
469	 5.06981913693887E-03 
470	 4.77315178971391E-03 
471	 4.51405832742734E-03 
472	 4.2978935160524E-03 
473	 4.1233292515877E-03 
474	 3.97503665277674E-03 
475	 3.85848405598077E-03 
476	 3.77933601817694E-03 
477	 3.71475231101848E-03 
478	 3.66367628261978E-03 
479	 0.003640918772822 
480	 3.63411076578425E-03 
481	 3.63634193996366E-03 
482	 3.65100280971562E-03 
483	 3.6695548600373E-03 
484	 3.67906040388742E-03 
485	 3.70231407208565E-03 
486	 3.7422581397715E-03 
487	 3.78192556935509E-03 
488	 3.82721577185426E-03 
489	 3.88321668197391E-03 
490	 3.95105563110635E-03 
491	 4.0248588931558E-03 
492	 4.09324374104374E-03 
493	 4.15353129126463E-03 
494	 4.20702569366001E-03 
495	 4.26880500465032E-03 
496	 4.33453817691808E-03 
497	 4.39747265150069E-03 
498	 4.45223941671313E-03 
499	 4.50242015184513E-03 
500	 4.56535443206472E-03 
501	 4.62238834981546E-03 
502	 4.66355444201084E-03 
503	 4.70733846380009E-03 
504	 4.74873847986977E-03 
505	 4.77383785885527E-03 
506	 4.79971795227663E-03 
507	 4.83087378775832E-03 
508	 4.8611128820906E-03 
509	 4.8871341493894E-03 
510	 4.90625240158343E-03 
511	 4.9246389053703E-03 
512	 4.94356509812244E-03 
513	 4.96335678676771E-03 
514	 4.97809459897432E-03 
515	 4.98638466509248E-03 
516	 4.99895972906919E-03 
517	 5.01279047271687E-03 
518	 5.02223398932636E-03 
519	 5.02744322904911E-03 
520	 5.03225358054688E-03 
521	 5.05141217425094E-03 
522	 5.06760639928102E-03 
523	 5.06897477971615E-03 
524	 5.07631222500509E-03 
525	 5.08776866151043E-03 
526	 5.08992049388202E-03 
527	 5.0975172921875E-03 
528	 5.11347388349486E-03 
529	 5.12394732508513E-03 
530	 5.12995100550976E-03 
531	 5.13438027232518E-03 
532	 5.14532950483525E-03 
533	 5.16041551409695E-03 
534	 5.16437466624778E-03 
535	 5.1709025906623E-03 
536	 5.18716697704653E-03 
537	 5.19774841082387E-03 
538	 5.20566528732981E-03 
539	 5.22129069104306E-03 
540	 5.23234883638438E-03 
541	 5.2363447342766E-03 
542	 5.24165991397805E-03 
543	 5.24672976338108E-03 
544	 5.2496168456275E-03 
545	 5.25431503069063E-03 
546	 5.25896590426392E-03 
547	 5.25518029202914E-03 
548	 5.25485959794209E-03 
549	 5.26292142199621E-03 
550	 5.26818776024959E-03 
551	 5.2696323127918E-03 
552	 5.26839834250166E-03 
553	 5.25777065043919E-03 
554	 5.24202190105363E-03 
555	 5.24459654543913E-03 
556	 5.25243120772259E-03 
557	 5.25365678974987E-03 
558	 5.24551225732538E-03 
559	 5.23184069318773E-03 
560	 5.22439338696553E-03 
561	 5.21599744060715E-03 
562	 5.20446431677258E-03 
563	 5.19321685758817E-03 
564	 5.18158970127724E-03 
565	 5.1682508906199E-03 
566	 5.16106135406331E-03 
567	 5.15936350225573E-03 
568	 5.15443665164723E-03 
569	 5.14106353863636E-03 
570	 5.11704717426298E-03 
571	 5.1003318987847E-03 
572	 5.09108438184447E-03 
573	 5.08379315366101E-03 
574	 5.06825278705655E-03 
575	 5.04201298959069E-03 
576	 5.01593532861688E-03 
577	 4.99744769330569E-03 
578	 4.99316723481845E-03 
579	 4.97928700838731E-03 
580	 4.9554936627436E-03 
581	 4.94007513474851E-03 
582	 4.9288850816005E-03 
583	 4.91987347846015E-03 
584	 4.91499437112649E-03 
585	 4.91026541580895E-03 
586	 4.8991026613252E-03 
587	 4.88137809049328E-03 
588	 4.86048314888642E-03 
589	 4.85092427557867E-03 
590	 4.84591531162471E-03 
591	 4.83799318533436E-03 
592	 4.82320984955036E-03 
593	 4.8018586097428E-03 
594	 4.77631601800501E-03 
595	 4.75816573307211E-03 
596	 4.7496479915246E-03 
597	 4.72271734266035E-03 
598	 4.68962942008902E-03 
599	 4.6734075499371E-03 
600	 4.65903975825922E-03 
601	 4.64074145664217E-03 
602	 4.61185378300196E-03 
603	 4.58378115606557E-03 
604	 4.56510780932202E-03 
605	 4.54102672786573E-03 
606	 4.51373699902386E-03 
607	 4.49602447645042E-03 
608	 4.47519719088441E-03 
609	 4.44807659387828E-03 
610	 4.42314116563881E-03 
611	 4.40668669858672E-03 
612	 4.40527154125297E-03 
613	 4.38851810221581E-03 
614	 4.35497583813948E-03 
615	 4.3289421781867E-03 
616	 4.3028496635486E-03 
617	 4.27277942157315E-03 
618	 4.24815434180223E-03 
619	 4.22765115131186E-03 
620	 4.20624029180464E-03 
621	 4.18323375337658E-03 
622	 4.15737123634578E-03 
623	 4.1261888499467E-03 
624	 4.09475337075708E-03 
625	 4.06837425530746E-03 
626	 4.03949128651682E-03 
627	 4.00890293259379E-03 
628	 3.98451586215295E-03 
629	 3.95908479001272E-03 
630	 3.92887841929584E-03 
631	 3.89675733733218E-03 
632	 3.86641738404181E-03 
633	 3.84334090078942E-03 
634	 3.81590496134485E-03 
635	 3.78277722866768E-03 
636	 3.75347672277714E-03 
637	 3.72760814794555E-03 
638	 3.70459495548416E-03 
639	 3.68533333077748E-03 
640	 3.66609716052583E-03 
641	 3.63698754881303E-03 
642	 3.61119382986659E-03 
643	 3.59261266999151E-03 
644	 3.56861975705493E-03 
645	 3.5424245354246E-03 
646	 3.51970642531349E-03 
647	 3.50244622884922E-03 
648	 3.4879277528487E-03 
649	 3.46562982381247E-03 
650	 3.43936984733133E-03 
651	 3.41241856022896E-03 
652	 3.38849052075297E-03 
653	 3.36789638193874E-03 
654	 3.35025015940467E-03 
655	 3.32861007294794E-03 
656	 3.30303420494574E-03 
657	 3.28705535658208E-03 
658	 3.27440987019615E-03 
659	 3.25741542295448E-03 
660	 3.23109911253543E-03 
661	 3.20129976959012E-03 
662	 3.18717359343824E-03 
663	 3.17808169951934E-03 
664	 3.16763663710961E-03 
665	 3.15183221781882E-03 
666	 3.13489688188305E-03 
667	 3.12467490100574E-03 
668	 3.11072447621374E-03 
669	 3.09337068072798E-03 
670	 3.08694924102779E-03 
671	 3.07845805937983E-03 
672	 3.0582969893195E-03 
673	 3.04751816237239E-03 
674	 3.04116338343805E-03 
675	 3.01522058661271E-03 
676	 3.00360960786907E-03 
677	 3.01369999923005E-03 
678	 3.00899370212369E-03 
679	 2.9965307366382E-03 
680	 0.002988544088792 
681	 2.98038590586564E-03 
682	 2.96837256985251E-03 
683	 2.93950062546664E-03 
684	 2.92732092749371E-03 
685	 2.94696048794449E-03 
686	 2.94456906460747E-03 
687	 2.92588695874838E-03 
688	 2.91425646552855E-03 
689	 2.90818984422797E-03 
690	 2.90740838037054E-03 
691	 2.90901241731029E-03 
692	 2.90814323145346E-03 
693	 2.90086950412369E-03 
694	 2.89320470253578E-03 
695	 2.88774575691622E-03 
696	 2.88870073557241E-03 
697	 2.88589920925722E-03 
698	 2.87569993645898E-03 
699	 2.86386198833444E-03 
700	 2.85710650471877E-03 
701	 2.86293929320992E-03 
702	 2.86841173378753E-03 
703	 2.86901891505677E-03 
704	 2.86225920155023E-03 
705	 2.86016255611463E-03 
706	 2.86751399069738E-03 
707	 2.85214006731347E-03 
708	 2.83019278125183E-03 
709	 2.84083590601501E-03 
710	 2.84812272898276E-03 
711	 2.84378499189179E-03 
712	 2.84522004421189E-03 
713	 2.84637738684837E-03 
714	 2.8416484905015E-03 
715	 2.84376714071354E-03 
716	 2.85051832525558E-03 
717	 2.85005297566207E-03 
718	 2.84626334142639E-03 
719	 2.84202540729263E-03 
720	 2.84425966769045E-03 
721	 2.85032455665604E-03 
722	 2.85592177873329E-03 
723	 2.86045514760017E-03 
724	 2.86413691061733E-03 
725	 2.86967224844752E-03 
726	 2.87245369875405E-03 
727	 2.87030909508311E-03 
728	 2.87084268523557E-03 
729	 2.87254685747845E-03 
730	 2.87054408460991E-03 
731	 2.87111265858596E-03 
732	 2.87472077071732E-03 
733	 2.87382604880403E-03 
734	 2.8747877316909E-03 
735	 2.88296194081338E-03 
736	 2.89078728460622E-03 
737	 2.89609182122865E-03 
738	 2.89732071645962E-03 
739	 2.89862830150711E-03 
740	 2.90161089696451E-03 
741	 2.90446248746039E-03 
742	 2.90674851135787E-03 
743	 2.9081979261195E-03 
744	 2.90847608190348E-03 
745	 2.90983861783607E-03 
746	 2.92018287269943E-03 
747	 2.92612253649069E-03 
748	 2.92184717255831E-03 
749	 2.92249927226357E-03 
750	 2.92739378402735E-03 
751	 2.93247405144004E-03 
752	 2.93751530562312E-03 
753	 2.94174373839341E-03 
754	 2.94277679367473E-03 
755	 2.94754497010996E-03 
756	 2.95976017948503E-03 
757	 2.96352508546846E-03 
758	 2.96106522071311E-03 
759	 2.96100651394358E-03 
760	 2.97074714108814E-03 
761	 2.98747203464198E-03 
762	 2.98478379906305E-03 
763	 2.97685230657446E-03 
764	 2.97851548005914E-03 
765	 2.98757847572405E-03 
766	 2.99760399748546E-03 
767	 2.99277885530266E-03 
768	 2.98670897684299E-03 
769	 2.98604402932932E-03 
770	 2.99387337532034E-03 
771	 3.00378117699744E-03 
772	 3.00795815071235E-03 
773	 3.00968187678226E-03 
774	 3.01185616451275E-03 
775	 3.02186866559801E-03 
776	 3.02843445858628E-03 
777	 3.0265973323948E-03 
778	 3.02710791249122E-03 
779	 3.0300582829668E-03 
780	 3.03358430818966E-03 
781	 3.04058224963087E-03 
782	 3.04871873048557E-03 
783	 3.0470863814608E-03 
784	 3.04703484068763E-03 
785	 3.05537955379823E-03 
786	 3.06253357613001E-03 
787	 3.06451317822609E-03 
788	 3.05660470283376E-03 
789	 3.0505827067292E-03 
790	 3.0512293218929E-03 
791	 3.06024900460513E-03 
792	 3.06811814132498E-03 
793	 0.003068066934439 
794	 3.07416540165479E-03 
795	 3.0865232269169E-03 
796	 3.10159489421466E-03 
797	 3.10717877622079E-03 
798	 3.1014943712919E-03 
799	 3.0998544130093E-03 
800	 3.10048402119191E-03 
801	 3.10048770149011E-03 
802	 3.09262437435829E-03 
803	 3.08247770238775E-03 
804	 3.08711683626486E-03 
805	 3.09526229092216E-03 
806	 3.10220407010182E-03 
807	 3.10736475769551E-03 
808	 3.10909576568306E-03 
809	 3.10634325037504E-03 
810	 3.11005143480378E-03 
811	 3.12058663952994E-03 
812	 3.13339975122986E-03 
813	 3.13898720757867E-03 
814	 3.13402686382492E-03 
815	 3.12914941841389E-03 
816	 3.12470338686115E-03 
817	 3.12030392471576E-03 
818	 3.13566342375058E-03 
819	 3.16044358083492E-03 
820	 3.15099348272396E-03 
821	 3.14005705262354E-03 
822	 3.14248632762816E-03 
823	 3.14502159295023E-03 
824	 3.14425971870729E-03 
825	 3.13756556281498E-03 
826	 3.13798992873692E-03 
827	 3.14618734512569E-03 
828	 3.1527661917301E-03 
829	 3.16208175979681E-03 
830	 3.17424907246674E-03 
831	 3.17820792045495E-03 
832	 3.17424511543326E-03 
833	 3.16459995223377E-03 
834	 3.16924368365163E-03 
835	 3.18408784011527E-03 
836	 3.17637699511996E-03 
837	 3.17201100815631E-03 
838	 3.18262807873498E-03 
839	 3.1832367949947E-03 
840	 3.18243880501742E-03 
841	 3.19588435028101E-03 
842	 3.20191171235022E-03 
843	 3.19858462459587E-03 
844	 3.19922631636131E-03 
845	 3.19746403243754E-03 
846	 3.19233030335039E-03 
847	 3.20190686007175E-03 
848	 3.21278380623959E-03 
849	 3.20373989408273E-03 
850	 3.20593943897981E-03 
851	 3.21739945986992E-03 
852	 3.20375892545046E-03 
853	 3.19364163885075E-03 
854	 3.20152065376974E-03 
855	 3.20946330795898E-03 
856	 3.21746076511445E-03 
857	 3.22817230511732E-03 
858	 3.23082870363763E-03 
859	 3.22589502266048E-03 
860	 3.22249544138731E-03 
861	 0.003226939820213 
862	 3.23909495523767E-03 
863	 3.23525360535043E-03 
864	 3.21817950530599E-03 
865	 3.19535254362985E-03 
866	 3.19072035706555E-03 
867	 3.20400675471508E-03 
868	 3.21332071711267E-03 
869	 3.2248440951969E-03 
870	 3.23840867359619E-03 
871	 3.23913710095378E-03 
872	 3.24067166647789E-03 
873	 3.25998344351373E-03 
874	 3.26175776001244E-03 
875	 3.24570264599299E-03 
876	 3.23108711349112E-03 
877	 3.23268111487253E-03 
878	 3.25290745585787E-03 
879	 3.26042039796285E-03 
880	 3.26127453087395E-03 
881	 3.26483313985934E-03 
882	 3.26307534684259E-03 
883	 3.25785042433463E-03 
884	 3.25642413536195E-03 
885	 3.26212588928927E-03 
886	 3.26835066778535E-03 
887	 3.23202465548166E-03 
888	 3.20361642413265E-03 
889	 3.22961485176103E-03 
890	 3.25505600757542E-03 
891	 3.26744834370453E-03 
892	 3.26339984422773E-03 
893	 3.25563606998675E-03 
894	 3.25145479224572E-03 
895	 3.26037975295149E-03 
896	 3.26430846821791E-03 
897	 3.25156528486964E-03 
898	 3.25817626878553E-03 
899	 3.26841513892248E-03 
900	 3.24399743227075E-03 
901	 3.23020677324192E-03 
902	 3.23907844018041E-03 
903	 3.26556767871994E-03 
904	 3.27042241383921E-03 
905	 3.23708873173093E-03 
906	 3.23815250263701E-03 
907	 3.25946331449902E-03 
908	 3.26758636869106E-03 
909	 3.27264335486541E-03 
910	 3.27500064928913E-03 
911	 3.27367965392844E-03 
912	 0.003257463035519 
913	 3.2277767552095E-03 
914	 3.22272210176183E-03 
915	 3.23089248001595E-03 
916	 3.2355447987879E-03 
917	 3.24589981962945E-03 
918	 3.25237374260164E-03 
919	 3.22515296996744E-03 
920	 3.21587404534552E-03 
921	 3.2372925412063E-03 
922	 3.2529896251026E-03 
923	 3.26687948766068E-03 
924	 3.27957990219215E-03 
925	 3.25266676310524E-03 
926	 3.2126825496954E-03 
927	 3.21714791645874E-03 
928	 3.21937487349343E-03 
929	 3.21352456104434E-03 
930	 3.23009866195625E-03 
931	 3.23528349319316E-03 
932	 3.21442117750196E-03 
933	 3.2164902915003E-03 
934	 0.003216967975582 
935	 3.17994561805938E-03 
936	 3.17304446155064E-03 
937	 3.20360844994236E-03 
938	 3.25182945485385E-03 
939	 3.27739507897193E-03 
940	 3.26626419664829E-03 
941	 3.25125514990943E-03 
942	 3.22918981354635E-03 
943	 3.19907487277494E-03 
944	 3.19261266657406E-03 
945	 3.20168090829013E-03 
946	 3.20070080566776E-03 
947	 3.20637849860529E-03 
948	 3.21715926425767E-03 
949	 3.21354963038432E-03 
950	 3.20600197855825E-03 
951	 3.2019124162752E-03 
952	 3.20788383026236E-03 
953	 3.20657763522757E-03 
954	 3.17942954770249E-03 
955	 3.19505294511586E-03 
956	 3.24078363386833E-03 
957	 3.25036405201408E-03 
958	 3.22657837943383E-03 
959	 3.18742999298235E-03 
960	 3.2217002345703E-03 
961	 3.23160869626873E-03 
962	 3.15712871974386E-03 
963	 3.16578582372741E-03 
964	 3.22548871388045E-03 
965	 3.25155411046793E-03 
966	 3.24135583965853E-03 
967	 3.20770363777519E-03 
968	 3.19655081558494E-03 
969	 3.1985043647659E-03 
970	 3.21238774261415E-03 
971	 3.25133050089586E-03 
972	 3.2700224643333E-03 
973	 3.23303150829497E-03 
974	 3.22300881972204E-03 
975	 3.22094457848368E-03 
976	 3.16626568593774E-03 
977	 3.15252935612873E-03 
978	 3.1840250136588E-03 
979	 3.1859820711108E-03 
980	 3.1595946128943E-03 
981	 3.11722313265335E-03 
982	 3.13253203480801E-03 
983	 3.15482507616428E-03 
984	 3.12890886865119E-03 
985	 3.09661221952561E-03 
986	 3.08331629192075E-03 
987	 3.12162954234736E-03 
988	 3.17013814382546E-03 
989	 3.20363716736313E-03 
990	 3.18367465538128E-03 
991	 3.18095188782476E-03 
992	 3.21186874022511E-03 
993	 3.12644959335346E-03 
994	 3.0499272637676E-03 
995	 3.11504212962317E-03 
996	 3.18803147600604E-03 
997	 3.20678924201252E-03 
998	 3.1019330514862E-03 
999	 3.05208287534921E-03 
1000	 3.08651270868249E-03 
1001	 3.09895398307475E-03 
1002	 3.12175517415556E-03 
1003	 3.15351507721382E-03 
1004	 3.10169999818489E-03 
1005	 3.05940740930057E-03 
1006	 3.11159072908628E-03 
1007	 3.0823097417375E-03 
1008	 3.04672447196396E-03 
1009	 3.18851187600839E-03 
1010	 3.20955745615642E-03 
1011	 3.09632985684136E-03 
1012	 3.08239192756701E-03 
1013	 3.07289451582061E-03 
1014	 3.03853264938257E-03 
1015	 3.02501899211076E-03 
1016	 3.0393542923039E-03 
1017	 3.07955220184165E-03 
1018	 3.09920284307717E-03 
1019	 3.09788802423007E-03 
1020	 3.0872727971445E-03 
1021	 3.02893320764613E-03 
1022	 2.97066944159949E-03 
1023	 3.07663685070349E-03 
1024	 3.08159914566646E-03 
1025	 2.94693989387052E-03 
1026	 2.92891385410681E-03 
1027	 3.0213269934128E-03 
1028	 3.17891855916855E-03 
1029	 3.16886098625342E-03 
1030	 3.06918561690078E-03 
1031	 3.01037708827833E-03 
1032	 3.05188537189209E-03 
1033	 3.17096837252061E-03 
1034	 3.29788640882401E-03 
1035	 3.26008890458411E-03 
1036	 3.08887328368964E-03 
1037	 3.09573025534818E-03 
1038	 3.03547167316004E-03 
1039	 2.86573047491189E-03 
1040	 2.95380196215226E-03 
1041	 3.08044892039729E-03 
1042	 3.06503266043937E-03 
1043	 3.12279423245272E-03 
1044	 3.16956846695504E-03 
1045	 3.06662830301078E-03 
1046	 3.06411225008825E-03 
1047	 3.15388184387448E-03 
1048	 3.18274977722648E-03 
1049	 3.23591898850024E-03 
1050	 3.2963984108726E-03 
1051	 3.21211227523951E-03 
1052	 3.18350219844066E-03 
1053	 3.26330943401814E-03 
1054	 3.1435113773556E-03 
1055	 2.98316586137021E-03 
1056	 2.93810660763445E-03 
1057	 2.95629903929974E-03 
1058	 2.98687242629817E-03 
1059	 2.97103365327768E-03 
1060	 3.03503189274656E-03 
1061	 3.08776766423451E-03 
1062	 2.85233379794707E-03 
1063	 2.91420003991085E-03 
1064	 3.26361376999507E-03 
1065	 3.2180120323149E-03 
1066	 2.97294483048763E-03 
1067	 2.72760898576745E-03 
1068	 2.98573782816424E-03 
1069	 3.32751035705358E-03 
1070	 3.39893389111855E-03 
1071	 3.28770045824182E-03 
1072	 3.09874126962264E-03 
1073	 2.97591715127057E-03 
1074	 3.27595408699461E-03 
1075	 3.57220316084669E-03 
