Wavelength	9H00002.asd
325	 4.50396724151326E-06 
326	 5.64612649768251E-05 
327	 4.56693154090785E-05 
328	-1.49685170222186E-05 
329	-9.58807940996235E-06 
330	 1.38105269777284E-05 
331	 9.49990357795296E-06 
332	-5.46430572467887E-06 
333	-1.99437205802263E-05 
334	-1.43445739899539E-05 
335	-3.215718458974E-06 
336	 7.52771763354548E-06 
337	 1.44279092411933E-05 
338	 2.99782199304631E-05 
339	 6.27334696356866E-05 
340	 5.12575810714755E-05 
341	 9.13423448124342E-06 
342	-9.32987922278116E-06 
343	-1.85068472194854E-06 
344	 2.70642577135161E-05 
345	 4.20829399966592E-05 
346	 4.72952901360503E-05 
347	 4.99975188277231E-05 
348	 4.48127175876601E-05 
349	 3.39631386294719E-05 
350	 2.19607321326002E-05 
351	 1.99248240663126E-05 
352	 2.99105429012945E-05 
353	 3.42589101510958E-05 
354	 3.14684886234642E-05 
355	 2.21202957903473E-05 
356	 2.74354686049346E-05 
357	 4.54827696142735E-05 
358	 5.79344828296584E-05 
359	 5.41323074963534E-05 
360	 3.27561114324626E-05 
361	 2.84750144823236E-05 
362	 3.57974991346593E-05 
363	 3.99858633068079E-05 
364	 5.23631103702937E-05 
365	 6.83369973482747E-05 
366	 6.3360143519773E-05 
367	 5.78920766628394E-05 
368	 6.40863997546038E-05 
369	 5.91543822353642E-05 
370	 4.3827079179754E-05 
371	 2.42161174797676E-05 
372	 1.848693385566E-05 
373	 3.16343300625423E-05 
374	 5.72695673027794E-05 
375	 7.11722658243519E-05 
376	 5.59203239910797E-05 
377	 5.21492596969691E-05 
378	 6.25665827359948E-05 
379	 7.75596300052021E-05 
380	 8.14212758544169E-05 
381	 7.07668052355768E-05 
382	 6.21751150871427E-05 
383	 6.32265540009813E-05 
384	 7.92498323069557E-05 
385	 8.75217941985627E-05 
386	 8.64541310489198E-05 
387	 8.57734194486298E-05 
388	 8.42309716718348E-05 
389	 8.42674966576699E-05 
390	 1.00808534800819E-04 
391	 1.1611835045154E-04 
392	 1.07446950291332E-04 
393	 1.16316320243739E-04 
394	 1.43112736015151E-04 
395	 1.59093542751775E-04 
396	 1.65703271980639E-04 
397	 1.64668375368973E-04 
398	 1.64929656952408E-04 
399	 1.70042294772794E-04 
400	 1.83694153677043E-04 
401	 1.88037627691862E-04 
402	 1.83477942616424E-04 
403	 1.89966693460805E-04 
404	 2.0592448573473E-04 
405	 2.2950473469794E-04 
406	 2.59811148618052E-04 
407	 2.87038778867058E-04 
408	 2.89972728156039E-04 
409	 3.09002235731584E-04 
410	 3.52468765873752E-04 
411	 3.89756734267811E-04 
412	 4.25313013492334E-04 
413	 4.6629902753233E-04 
414	 5.37052664291055E-04 
415	 6.25258219277418E-04 
416	 6.82392815725471E-04 
417	 7.59107288826844E-04 
418	 8.76546481555446E-04 
419	 1.01384697252803E-03 
420	 1.16557821328033E-03 
421	 1.32680111992777E-03 
422	 1.50947648846669E-03 
423	 1.71894424249343E-03 
424	 1.95552089445567E-03 
425	 2.22658880099493E-03 
426	 2.53640488115988E-03 
427	 2.8734630985593E-03 
428	 3.2461947719245E-03 
429	 3.67135004213161E-03 
430	 4.14470808027833E-03 
431	 4.66358637257951E-03 
432	 5.21530905228064E-03 
433	 5.82518602482046E-03 
434	 6.5170334037072E-03 
435	 7.26549205495784E-03 
436	 8.06555590872947E-03 
437	 8.91536778053849E-03 
438	 9.83470783952668E-03 
439	 0.010825896176319 
440	 1.18550963034107E-02 
441	 0.012897648804933 
442	 1.39278592101888E-02 
443	 1.49260312916233E-02 
444	 1.58368233289761E-02 
445	 1.65544404976392E-02 
446	 1.70485521334072E-02 
447	 0.017289803293905 
448	 1.72690411594745E-02 
449	 1.69749665928388E-02 
450	 1.63866735598125E-02 
451	 1.55776447781287E-02 
452	 1.46128689855506E-02 
453	 1.35898619766693E-02 
454	 1.25531513129239E-02 
455	 0.011544813953879 
456	 1.05859578996338E-02 
457	 9.71197814353911E-03 
458	 8.98201637322929E-03 
459	 8.35494269038821E-03 
460	 7.80458865783365E-03 
461	 7.30368272668112E-03 
462	 6.85312013218645E-03 
463	 6.46059591599256E-03 
464	 0.006081680703556 
465	 5.70948366676787E-03 
466	 5.37523037192279E-03 
467	 5.05217467354448E-03 
468	 4.72552854806876E-03 
469	 4.43373331155296E-03 
470	 4.17787381595196E-03 
471	 3.94469813717614E-03 
472	 3.75213896128235E-03 
473	 3.60292215882237E-03 
474	 3.4790888738561E-03 
475	 3.38181048361724E-03 
476	 3.31279772581152E-03 
477	 3.25799155734168E-03 
478	 3.21502656223819E-03 
479	 3.18740337078803E-03 
480	 3.18177316917145E-03 
481	 3.19657300089024E-03 
482	 3.19948206190477E-03 
483	 3.20208986489432E-03 
484	 3.22805486710627E-03 
485	 3.25825112612483E-03 
486	 3.2882101331113E-03 
487	 3.32213634678119E-03 
488	 3.35980444176229E-03 
489	 3.40124348968445E-03 
490	 3.44724367823167E-03 
491	 3.49984259210015E-03 
492	 3.56506840339215E-03 
493	 3.62784413837375E-03 
494	 3.6814178862763E-03 
495	 3.72423149149219E-03 
496	 3.77100143944466E-03 
497	 3.83831854193594E-03 
498	 3.90300242499894E-03 
499	 3.95582966892827E-03 
500	 3.98758794826504E-03 
501	 4.01766811886941E-03 
502	 4.05856596147782E-03 
503	 4.10945876474167E-03 
504	 4.15889042193158E-03 
505	 4.18777605957597E-03 
506	 4.20502121970251E-03 
507	 4.21847738330156E-03 
508	 4.24739542994638E-03 
509	 4.28095821057647E-03 
510	 4.30775556711841E-03 
511	 4.32793251884157E-03 
512	 4.34198081993666E-03 
513	 4.35104167519304E-03 
514	 4.36226251543018E-03 
515	 4.37793339486982E-03 
516	 4.38784434583477E-03 
517	 4.39480676361712E-03 
518	 4.40429828041395E-03 
519	 4.41969643648115E-03 
520	 4.43833125522947E-03 
521	 4.44743345595927E-03 
522	 4.45311393893337E-03 
523	 4.46052419946931E-03 
524	 4.47083608716578E-03 
525	 4.48150769227578E-03 
526	 4.48525725496395E-03 
527	 4.4932949650706E-03 
528	 4.50715015105028E-03 
529	 4.51062293834412E-03 
530	 4.51472198388999E-03 
531	 4.53366588031666E-03 
532	 4.54948648508775E-03 
533	 4.55761721841152E-03 
534	 4.55775712073181E-03 
535	 4.56002694368812E-03 
536	 4.57071759290921E-03 
537	 4.58359139245506E-03 
538	 4.59758411884748E-03 
539	 4.61313425335693E-03 
540	 4.62456537007527E-03 
541	 4.63060946987721E-03 
542	 4.63630272174258E-03 
543	 4.64001436612126E-03 
544	 4.63997224097484E-03 
545	 4.63995939413978E-03 
546	 4.64138695042419E-03 
547	 4.64482370701828E-03 
548	 4.65218362167002E-03 
549	 4.66298659078457E-03 
550	 4.66826449051942E-03 
551	 4.66769726765945E-03 
552	 4.66263276650784E-03 
553	 4.65811511556886E-03 
554	 4.65570556626334E-03 
555	 4.65280664813152E-03 
556	 4.6520899403298E-03 
557	 4.65567573236879E-03 
558	 4.65505307820852E-03 
559	 4.64946800139064E-03 
560	 4.6414817812436E-03 
561	 4.63289898760223E-03 
562	 4.62444674374236E-03 
563	 4.61231642046047E-03 
564	 4.60131022467425E-03 
565	 4.59826674657178E-03 
566	 4.58923466731466E-03 
567	 4.57586837103394E-03 
568	 4.5784857744147E-03 
569	 4.57981436214285E-03 
570	 4.56716679489958E-03 
571	 4.54498783554981E-03 
572	 4.52518750034253E-03 
573	 4.53390072200455E-03 
574	 4.5305911913095E-03 
575	 4.50513341896987E-03 
576	 4.49050277171903E-03 
577	 4.48145966255634E-03 
578	 4.46906043869654E-03 
579	 4.45102789639111E-03 
580	 4.43048947109078E-03 
581	 4.41876307486343E-03 
582	 4.41165454969798E-03 
583	 4.40698439431015E-03 
584	 4.40851786136213E-03 
585	 4.40928026328827E-03 
586	 4.39618991334026E-03 
587	 4.38591719272527E-03 
588	 4.38113891120975E-03 
589	 4.36796295279835E-03 
590	 4.35409504526101E-03 
591	 4.34727534096764E-03 
592	 4.33992358398677E-03 
593	 4.32849639022732E-03 
594	 4.30696495062428E-03 
595	 4.29014822613559E-03 
596	 4.28225084966791E-03 
597	 4.25714717893808E-03 
598	 4.23083849615007E-03 
599	 4.23215184844501E-03 
600	 4.21865257096071E-03 
601	 4.18520402870843E-03 
602	 4.16093051006458E-03 
603	 4.14346645769297E-03 
604	 4.13004957287268E-03 
605	 4.11558947177744E-03 
606	 4.09870738733036E-03 
607	 4.07910985727246E-03 
608	 4.06053960211885E-03 
609	 4.04397009176577E-03 
610	 4.02147470260153E-03 
611	 4.0046873904855E-03 
612	 4.00857162611364E-03 
613	 3.99454013326641E-03 
614	 3.96198450575435E-03 
615	 3.94570893298316E-03 
616	 3.92547574970669E-03 
617	 3.89036397062636E-03 
618	 3.86580578032611E-03 
619	 3.85161796543138E-03 
620	 3.84004621188696E-03 
621	 3.82781231636116E-03 
622	 3.81044616480743E-03 
623	 3.77683557205431E-03 
624	 3.74367189073787E-03 
625	 3.72833586798948E-03 
626	 3.70523829492869E-03 
627	 3.67648079458461E-03 
628	 3.66682210251471E-03 
629	 3.65134577027914E-03 
630	 3.61933859738118E-03 
631	 3.5969017992623E-03 
632	 3.57759550647428E-03 
633	 3.54489772872793E-03 
634	 3.52257432382872E-03 
635	 3.51326660892328E-03 
636	 3.49720232582378E-03 
637	 3.47673535594456E-03 
638	 3.45441586541524E-03 
639	 3.43009798154756E-03 
640	 3.40534537462528E-03 
641	 3.38272357144014E-03 
642	 3.36478035372881E-03 
643	 3.35107217995035E-03 
644	 3.33206652068087E-03 
645	 3.30967805111328E-03 
646	 3.28770143425574E-03 
647	 3.26934392149854E-03 
648	 3.2555969489494E-03 
649	 3.24788049386966E-03 
650	 3.23225134591769E-03 
651	 3.20122382702799E-03 
652	 3.17903319975718E-03 
653	 3.16742523894795E-03 
654	 3.16338761236996E-03 
655	 3.14732827496113E-03 
656	 3.11671769616153E-03 
657	 3.09799614445696E-03 
658	 3.08557567417037E-03 
659	 0.003071811926535 
660	 3.05972431078073E-03 
661	 3.04840059869845E-03 
662	 3.03299221987964E-03 
663	 3.0238690639039E-03 
664	 3.02343915218129E-03 
665	 3.00810344585988E-03 
666	 2.98684840458987E-03 
667	 2.97836512572697E-03 
668	 2.96642931462795E-03 
669	 2.95199258620496E-03 
670	 2.95909339253863E-03 
671	 2.95835353347457E-03 
672	 2.92831282766529E-03 
673	 2.91569909175105E-03 
674	 2.91596044400929E-03 
675	 2.89463993090495E-03 
676	 2.88680763205975E-03 
677	 2.89933645295329E-03 
678	 2.89352994412325E-03 
679	 2.88061084150759E-03 
680	 2.87784978428983E-03 
681	 2.87193691613594E-03 
682	 2.86156357113418E-03 
683	 2.85085231502511E-03 
684	 2.84562706055925E-03 
685	 2.84799216301403E-03 
686	 2.84370014214673E-03 
687	 2.83460640314321E-03 
688	 2.82731351967173E-03 
689	 2.82318790134502E-03 
690	 2.82134537188375E-03 
691	 2.81418091191434E-03 
692	 2.80957034412087E-03 
693	 2.81428689402047E-03 
694	 2.81616589427878E-03 
695	 2.81444928784696E-03 
696	 2.81485240019355E-03 
697	 2.8102191866441E-03 
698	 2.7997335455588E-03 
699	 2.79527486680091E-03 
700	 2.79771317177916E-03 
701	 2.80641673133471E-03 
702	 2.80687533849548E-03 
703	 2.79929076345497E-03 
704	 2.79839323767447E-03 
705	 2.80145905455811E-03 
706	 2.80539698889499E-03 
707	 2.79889958078827E-03 
708	 2.78827990471621E-03 
709	 2.78794345183248E-03 
710	 2.79403770818266E-03 
711	 2.80267447366431E-03 
712	 2.80166313915901E-03 
713	 2.79705882145292E-03 
714	 2.79553207935666E-03 
715	 2.80320904355091E-03 
716	 2.81375789819585E-03 
717	 2.80700178282193E-03 
718	 2.80045198571359E-03 
719	 2.80197046523067E-03 
720	 2.80989338971658E-03 
721	 2.81827492224851E-03 
722	 2.81983772475388E-03 
723	 2.81965142284288E-03 
724	 2.82066728790766E-03 
725	 2.82868376698672E-03 
726	 2.83433119695968E-03 
727	 2.83254676107313E-03 
728	 2.83428464913245E-03 
729	 2.83747754789569E-03 
730	 2.83533675780194E-03 
731	 2.83773418100476E-03 
732	 2.84452216330609E-03 
733	 2.84055498382785E-03 
734	 2.83793607155061E-03 
735	 2.84721250980067E-03 
736	 2.85732150324322E-03 
737	 2.86496199085763E-03 
738	 2.86710680312618E-03 
739	 0.002871427509932 
740	 2.87921980411876E-03 
741	 2.87910055981642E-03 
742	 2.87685301781607E-03 
743	 2.88026006280098E-03 
744	 2.88584211196539E-03 
745	 2.89114184049498E-03 
746	 2.89112343179575E-03 
747	 2.89072007643802E-03 
748	 2.89315360834062E-03 
749	 2.90081364080153E-03 
750	 2.90821392673272E-03 
751	 2.90633101509446E-03 
752	 2.91003565960585E-03 
753	 2.91941428238849E-03 
754	 2.91667593165741E-03 
755	 2.91937062847097E-03 
756	 2.93817177818486E-03 
757	 2.94433300352412E-03 
758	 2.94044412090514E-03 
759	 2.94050458670203E-03 
760	 2.94645482952253E-03 
761	 2.95677933089227E-03 
762	 2.95859675177444E-03 
763	 2.95739961464358E-03 
764	 2.95890937402775E-03 
765	 2.95792797536788E-03 
766	 2.95802689962514E-03 
767	 2.97166605288488E-03 
768	 2.98095809494151E-03 
769	 2.97902302294623E-03 
770	 2.97187749635576E-03 
771	 2.97049235764265E-03 
772	 2.98652849174072E-03 
773	 2.99627623019259E-03 
774	 2.99686518257652E-03 
775	 2.99763372637942E-03 
776	 3.00208009265704E-03 
777	 3.01097047462654E-03 
778	 3.01366624310126E-03 
779	 3.01308260892215E-03 
780	 3.01525541950851E-03 
781	 3.02211916599149E-03 
782	 3.02892307947813E-03 
783	 3.01494649138129E-03 
784	 3.00748419462835E-03 
785	 3.02336010745071E-03 
786	 3.0410572780537E-03 
787	 3.05221921025832E-03 
788	 3.04793939803525E-03 
789	 3.04608743861364E-03 
790	 3.05004508693624E-03 
791	 3.04688319249993E-03 
792	 3.0462610472957E-03 
793	 3.05513598280752E-03 
794	 3.05829125175476E-03 
795	 3.0593901004984E-03 
796	 3.07257287821817E-03 
797	 3.08108305561115E-03 
798	 3.08130796289349E-03 
799	 3.08614699671042E-03 
800	 3.08890594302803E-03 
801	 3.08328576070936E-03 
802	 3.07885759629895E-03 
803	 3.07740692476639E-03 
804	 3.07843790751419E-03 
805	 3.07867930944788E-03 
806	 3.07809249401525E-03 
807	 3.0848278379637E-03 
808	 3.09053985197821E-03 
809	 3.08621272413119E-03 
810	 3.08364575032509E-03 
811	 3.08640919679198E-03 
812	 3.09715224088346E-03 
813	 3.10642028953571E-03 
814	 3.11134521487254E-03 
815	 3.12468122145175E-03 
816	 3.13495696628238E-03 
817	 3.12807902985799E-03 
818	 3.1270072252003E-03 
819	 3.13486075651109E-03 
820	 3.14630584568401E-03 
821	 3.14366235745616E-03 
822	 3.12436703710626E-03 
823	 3.13345543979224E-03 
824	 3.14968025994844E-03 
825	 3.14029405836063E-03 
826	 3.13706968361139E-03 
827	 3.14446715105681E-03 
828	 3.15182760258207E-03 
829	 3.16093370059772E-03 
830	 3.16923727808691E-03 
831	 3.1570863548245E-03 
832	 3.1410969445437E-03 
833	 3.14617879261231E-03 
834	 3.1522647369281E-03 
835	 3.15503907372106E-03 
836	 3.1577862833933E-03 
837	 3.15707392408052E-03 
838	 3.15269411776028E-03 
839	 3.1550026061547E-03 
840	 3.16471271729206E-03 
841	 3.18079540363625E-03 
842	 3.18946410279328E-03 
843	 3.18612898279661E-03 
844	 3.16881672325788E-03 
845	 3.15634758140848E-03 
846	 3.15950660211593E-03 
847	 3.16773402981565E-03 
848	 3.18101730623796E-03 
849	 3.20108751356885E-03 
850	 3.21458249816589E-03 
851	 3.21433735978317E-03 
852	 3.18880660680352E-03 
853	 3.17237413970478E-03 
854	 3.18135625119228E-03 
855	 3.18151211789402E-03 
856	 0.003176742842135 
857	 3.17763287822319E-03 
858	 3.18836064112666E-03 
859	 3.20273099515215E-03 
860	 3.19655312813184E-03 
861	 3.19528545681551E-03 
862	 3.20817440903078E-03 
863	 3.20166763047952E-03 
864	 3.18935694823968E-03 
865	 3.19284969708617E-03 
866	 3.19307392519263E-03 
867	 3.19065441622099E-03 
868	 3.20089383628658E-03 
869	 3.21026573552988E-03 
870	 3.21476652834633E-03 
871	 3.23632445545339E-03 
872	 3.25045349265448E-03 
873	 3.22726376815195E-03 
874	 3.20945526447118E-03 
875	 3.20642731725734E-03 
876	 3.21491124612219E-03 
877	 3.22081614424284E-03 
878	 3.21975713678818E-03 
879	 3.2298570212469E-03 
880	 3.2377978058541E-03 
881	 3.2286576768142E-03 
882	 3.21587124496793E-03 
883	 3.20719592445678E-03 
884	 3.2148466367771E-03 
885	 3.2227307534138E-03 
886	 3.2229998648828E-03 
887	 3.20873032912882E-03 
888	 3.20111415412193E-03 
889	 3.21839831329651E-03 
890	 3.2299066193457E-03 
891	 3.23159343561645E-03 
892	 3.22723681941106E-03 
893	 3.22801572200089E-03 
894	 3.23458900741644E-03 
895	 3.23126526055532E-03 
896	 3.22279763242399E-03 
897	 3.21429095593404E-03 
898	 3.21278949037144E-03 
899	 3.21416160777028E-03 
900	 3.20829942140344E-03 
901	 3.21011017337505E-03 
902	 3.22196183879844E-03 
903	 3.23725986967381E-03 
904	 3.2442181693178E-03 
905	 3.23534124309505E-03 
906	 3.21218221174087E-03 
907	 3.1945437122681E-03 
908	 3.20869805590083E-03 
909	 3.21557426161916E-03 
910	 3.21232747723605E-03 
911	 3.22486571016821E-03 
912	 3.22794718812436E-03 
913	 3.21442582709314E-03 
914	 3.21857468182992E-03 
915	 3.22132087942543E-03 
916	 3.2009148262178E-03 
917	 3.21749351691765E-03 
918	 3.25055646448194E-03 
919	 3.21529221264165E-03 
920	 3.19414539059539E-03 
921	 3.2098079227055E-03 
922	 3.22414013272376E-03 
923	 3.22849580013381E-03 
924	 3.2171036110851E-03 
925	 3.19377192403434E-03 
926	 3.17678265637884E-03 
927	 3.19701791748299E-03 
928	 3.20050397855053E-03 
929	 3.18231031033303E-03 
930	 3.18590687471873E-03 
931	 3.1939072631658E-03 
932	 3.19534482154629E-03 
933	 3.19330149885272E-03 
934	 3.17750733294527E-03 
935	 3.13698465943283E-03 
936	 3.13041363386449E-03 
937	 3.15741463439212E-03 
938	 3.18064292195238E-03 
939	 3.18041809475265E-03 
940	 3.15828858500985E-03 
941	 3.17806220572743E-03 
942	 3.18730266636712E-03 
943	 3.14252391519441E-03 
944	 3.12222423241394E-03 
945	 3.13098893906705E-03 
946	 3.1521958868473E-03 
947	 3.16206698278682E-03 
948	 3.15828468504868E-03 
949	 3.16974918810179E-03 
950	 3.16154085428204E-03 
951	 3.12365208312421E-03 
952	 3.1270078785094E-03 
953	 3.14401294593862E-03 
954	 3.13436154809174E-03 
955	 3.15359856988684E-03 
956	 3.18857456579713E-03 
957	 3.17867791934403E-03 
958	 3.15767219919632E-03 
959	 3.14248593999742E-03 
960	 3.16158319565969E-03 
961	 3.14591573159253E-03 
962	 3.05923845492905E-03 
963	 3.05868772640936E-03 
964	 3.11294789161811E-03 
965	 3.13944179307372E-03 
966	 3.17053580611206E-03 
967	 3.18800599198336E-03 
968	 3.11281808902273E-03 
969	 3.08110172595152E-03 
970	 3.14069709996337E-03 
971	 3.20516444411005E-03 
972	 3.21311319640219E-03 
973	 3.12845530893486E-03 
974	 3.12374184768155E-03 
975	 3.15899206099112E-03 
976	 3.10762338628591E-03 
977	 3.08767094142522E-03 
978	 3.11763935123636E-03 
979	 3.15330419831205E-03 
980	 3.14951460746249E-03 
981	 3.09759868810307E-03 
982	 3.1009815934999E-03 
983	 3.10634593185177E-03 
984	 3.0557179723403E-03 
985	 3.01650152875344E-03 
986	 3.00402880359709E-03 
987	 3.02166809794842E-03 
988	 3.06050958390622E-03 
989	 3.09973585864533E-03 
990	 3.08697280661513E-03 
991	 3.05542589964782E-03 
992	 3.02992606435914E-03 
993	 3.04146419728156E-03 
994	 3.04703051231477E-03 
995	 3.00691872736281E-03 
996	 3.04011001184411E-03 
997	 3.09202043702449E-03 
998	 3.01626250464431E-03 
999	 2.97098643202671E-03 
1000	 2.99866179014879E-03 
1001	 3.08427001185278E-03 
1002	 3.11775615004859E-03 
1003	 3.05598658789479E-03 
1004	 3.01359955645622E-03 
1005	 2.99588003097121E-03 
1006	 2.99375645333629E-03 
1007	 2.93523180405661E-03 
1008	 2.89121543428155E-03 
1009	 3.0062115000005E-03 
1010	 3.04465548962581E-03 
1011	 2.98272818257669E-03 
1012	 2.96494232955509E-03 
1013	 2.97122926239459E-03 
1014	 2.97758610727743E-03 
1015	 2.87291068305287E-03 
1016	 2.84838457190438E-03 
1017	 3.03664130397678E-03 
1018	 3.11318379730705E-03 
1019	 3.06362104514485E-03 
1020	 2.94759891559809E-03 
1021	 2.84303710366178E-03 
1022	 2.80929980384497E-03 
1023	 2.94354726831894E-03 
1024	 2.99995985378339E-03 
1025	 2.91904692774135E-03 
1026	 2.87107519420126E-03 
1027	 2.87285684645533E-03 
1028	 2.92278773518419E-03 
1029	 2.93740581788729E-03 
1030	 2.93206749038786E-03 
1031	 0.0029339808903 
1032	 2.89504817187739E-03 
1033	 2.84862767305115E-03 
1034	 2.87674200919461E-03 
1035	 2.88005696273739E-03 
1036	 2.85241293246987E-03 
1037	 2.87568361456482E-03 
1038	 2.89892178189452E-03 
1039	 2.90343322404166E-03 
1040	 2.9384052285252E-03 
1041	 2.88649261318756E-03 
1042	 2.68975620895181E-03 
1043	 2.66693367382339E-03 
1044	 2.8130129866295E-03 
1045	 3.03908767711016E-03 
1046	 3.00539408185743E-03 
1047	 2.82715533057719E-03 
1048	 2.9722596582556E-03 
1049	 2.96290680542484E-03 
1050	 2.7722874012772E-03 
1051	 2.86913933154409E-03 
1052	 2.95079490208125E-03 
1053	 2.87183005540045E-03 
1054	 2.72790902171786E-03 
1055	 2.63905991073261E-03 
1056	 2.69014399141753E-03 
1057	 2.72066840874715E-03 
1058	 2.71076682875322E-03 
1059	 2.6689610368913E-03 
1060	 2.61132532391738E-03 
1061	 2.58975525566496E-03 
1062	 2.7019946616715E-03 
1063	 2.85541743163885E-03 
1064	 2.93554139226414E-03 
1065	 2.66834214297034E-03 
1066	 2.38346860670424E-03 
1067	 2.30580244842814E-03 
1068	 2.67645261917196E-03 
1069	 3.00218133689911E-03 
1070	 2.92728806044621E-03 
1071	 2.87089814629326E-03 
1072	 2.77811229364676E-03 
1073	 2.57094696880633E-03 
1074	 2.89597325547865E-03 
1075	 3.30107465327895E-03 
