Wavelength	9H00001.asd
325	 3.97622165612404E-05 
326	 8.98978819567124E-05 
327	 8.91671409150692E-05 
328	 3.77766777629825E-05 
329	 8.46423438452144E-06 
330	 7.36909205487691E-06 
331	 3.48185503875188E-05 
332	 3.19823139744028E-05 
333	 7.43028798964278E-06 
334	 6.85005600363964E-06 
335	 0.000011687312141 
336	 1.44976518503655E-05 
337	 5.92897795324727E-06 
338	 2.25614679647124E-06 
339	 1.73034962882501E-05 
340	 2.20455159416437E-05 
341	 1.09540779591681E-05 
342	-2.22782852860478E-05 
343	-1.85503462193603E-05 
344	 3.08370728970605E-05 
345	 4.9097462126221E-05 
346	 5.13776147577982E-05 
347	 5.89292565258799E-05 
348	 6.41740290803149E-05 
349	 6.37972839200455E-05 
350	 4.87309211138553E-05 
351	 4.58425373433637E-05 
352	 6.14568363583196E-05 
353	 6.26286210555691E-05 
354	 5.10043367659693E-05 
355	 3.25240143405873E-05 
356	 3.42182129458389E-05 
357	 5.38249917320232E-05 
358	 6.57906719066306E-05 
359	 6.86223215116517E-05 
360	 6.18259799177648E-05 
361	 5.20296967563716E-05 
362	 4.47519518375462E-05 
363	 4.59687655775186E-05 
364	 5.5138220473535E-05 
365	 6.82494668836441E-05 
366	 7.37451690256093E-05 
367	 7.46955179279888E-05 
368	 7.2627668974867E-05 
369	 6.1674505204333E-05 
370	 4.90948281612449E-05 
371	 4.90928542231712E-05 
372	 5.1687088587737E-05 
373	 5.73383664529279E-05 
374	 8.57268692131372E-05 
375	 9.59156276068733E-05 
376	 5.85048178780101E-05 
377	 4.95740990705602E-05 
378	 6.68880505613818E-05 
379	 7.31457767454568E-05 
380	 7.98779965315863E-05 
381	 8.70322060211974E-05 
382	 8.24440560157635E-05 
383	 7.49404911718026E-05 
384	 7.45307825818786E-05 
385	 8.63678068636002E-05 
386	 1.0350692811167E-04 
387	 1.05476766369826E-04 
388	 1.0447102705751E-04 
389	 1.05400970470683E-04 
390	 1.05848909613921E-04 
391	 1.0461412517335E-04 
392	 1.00455822061878E-04 
393	 1.17464412010191E-04 
394	 1.48518008088706E-04 
395	 1.55611310508294E-04 
396	 1.53621359073206E-04 
397	 1.53334628254564E-04 
398	 1.71131028169452E-04 
399	 1.90493590072907E-04 
400	 1.82440195813859E-04 
401	 1.76077000075419E-04 
402	 1.83262902439435E-04 
403	 2.16607955967184E-04 
404	 2.42728251508726E-04 
405	 2.40720261072078E-04 
406	 2.62082114103807E-04 
407	 2.97134835747367E-04 
408	 3.0869233346147E-04 
409	 3.22792486735561E-04 
410	 3.48901806320615E-04 
411	 3.87810612953831E-04 
412	 4.36307543804612E-04 
413	 4.91053746633118E-04 
414	 5.53676143766312E-04 
415	 6.21277749742251E-04 
416	 6.82502991314138E-04 
417	 7.64133566164689E-04 
418	 8.77844749229866E-04 
419	 1.0106492849891E-03 
420	 1.16083547005683E-03 
421	 1.3273012330422E-03 
422	 1.5132546728306E-03 
423	 1.72427265154816E-03 
424	 1.97256485714268E-03 
425	 2.24276890723197E-03 
426	 2.52887562188745E-03 
427	 2.86313121829264E-03 
428	 3.24816190676792E-03 
429	 3.67945161690764E-03 
430	 4.14463860102343E-03 
431	 4.64549585684967E-03 
432	 5.20604396676129E-03 
433	 5.82495746782674E-03 
434	 6.50089176504337E-03 
435	 7.2306692672509E-03 
436	 8.01929944116026E-03 
437	 8.88010617740331E-03 
438	 9.80696664572935E-03 
439	 1.07915192247492E-02 
440	 1.18130776880822E-02 
441	 0.012846651077381 
442	 0.01386451700759 
443	 1.48573624677126E-02 
444	 1.57696391398132E-02 
445	 1.64855379153208E-02 
446	 1.69738482810824E-02 
447	 1.72061230457998E-02 
448	 0.017187162417936 
449	 1.69006994304391E-02 
450	 1.63114945163789E-02 
451	 1.55096599658281E-02 
452	 1.45604966634694E-02 
453	 1.35374183256826E-02 
454	 1.24990271389941E-02 
455	 1.15018488400059E-02 
456	 1.05595667166951E-02 
457	 9.69876678282053E-03 
458	 8.95906956386231E-03 
459	 8.32068758173578E-03 
460	 7.76830798171505E-03 
461	 7.27372159103162E-03 
462	 6.83189652609943E-03 
463	 6.44247374771198E-03 
464	 6.06367668869021E-03 
465	 5.6886631101789E-03 
466	 5.34481827888204E-03 
467	 5.02097516563293E-03 
468	 4.71112798602656E-03 
469	 4.42755380309393E-03 
470	 4.17187289622069E-03 
471	 3.94121656109318E-03 
472	 3.74931866547069E-03 
473	 3.59763865590151E-03 
474	 3.46624181949481E-03 
475	 3.36552873839537E-03 
476	 3.30586099564793E-03 
477	 3.25150614173665E-03 
478	 3.20134322787168E-03 
479	 3.17656429005769E-03 
480	 3.17374958028509E-03 
481	 3.18725761025442E-03 
482	 3.19215733970808E-03 
483	 3.19637061242124E-03 
484	 3.21645676832991E-03 
485	 3.2508359499592E-03 
486	 3.29375223527993E-03 
487	 3.32435391326325E-03 
488	 3.35638425212193E-03 
489	 3.40131318540416E-03 
490	 3.45762311355135E-03 
491	 3.51775968121015E-03 
492	 3.56486664732445E-03 
493	 3.61456558114799E-03 
494	 3.67070531414166E-03 
495	 3.71989271378384E-03 
496	 3.77249462457841E-03 
497	 3.84111217151438E-03 
498	 3.89423490977957E-03 
499	 3.93181389255227E-03 
500	 3.98008308661945E-03 
501	 4.02335247618444E-03 
502	 4.05496533668646E-03 
503	 4.09979735119879E-03 
504	 4.14966048200568E-03 
505	 4.18547497703517E-03 
506	 4.20439624836448E-03 
507	 4.21245840999227E-03 
508	 4.24051642692755E-03 
509	 4.27316596051864E-03 
510	 4.29462312116083E-03 
511	 4.31251621155185E-03 
512	 4.3277817596056E-03 
513	 4.33923679231356E-03 
514	 4.3501420855489E-03 
515	 4.36205200909922E-03 
516	 4.37340416181953E-03 
517	 4.38457872697772E-03 
518	 4.39660199475326E-03 
519	 4.40584137137274E-03 
520	 4.4132219672964E-03 
521	 4.42559431875881E-03 
522	 4.44058585398254E-03 
523	 4.45524427372477E-03 
524	 4.45747474075915E-03 
525	 4.45453487611471E-03 
526	 4.46785726355632E-03 
527	 4.48036048230437E-03 
528	 4.48680307002265E-03 
529	 4.49300252805935E-03 
530	 4.50167974105108E-03 
531	 4.51560938401735E-03 
532	 4.52841004224651E-03 
533	 4.53819420594273E-03 
534	 4.5438242268587E-03 
535	 4.55297553127877E-03 
536	 4.56929219661307E-03 
537	 4.58009993781117E-03 
538	 4.58715046168127E-03 
539	 4.59728669115157E-03 
540	 4.60714696210411E-03 
541	 4.61544226102315E-03 
542	 4.6206490215978E-03 
543	 4.62627405548243E-03 
544	 4.63543189350401E-03 
545	 4.63869878688881E-03 
546	 4.6369628039869E-03 
547	 4.63914915255854E-03 
548	 4.63794771621164E-03 
549	 4.63269004109118E-03 
550	 4.64591148026468E-03 
551	 4.66105748023574E-03 
552	 4.64779002386613E-03 
553	 4.64062430386694E-03 
554	 4.64585625177281E-03 
555	 4.64514922951378E-03 
556	 4.64119055455897E-03 
557	 4.63732309512469E-03 
558	 4.6361925095278E-03 
559	 4.6364321489424E-03 
560	 4.63376865952593E-03 
561	 4.62726911888786E-03 
562	 4.61739466645433E-03 
563	 4.61022019129103E-03 
564	 4.60290476598051E-03 
565	 4.59086264410888E-03 
566	 4.5799383549329E-03 
567	 4.57236515648877E-03 
568	 4.57002724809782E-03 
569	 4.56614511325486E-03 
570	 4.55586525635007E-03 
571	 4.54397181799095E-03 
572	 4.53172315968902E-03 
573	 4.51983536318772E-03 
574	 4.5087571208732E-03 
575	 4.4981660985551E-03 
576	 4.48613622353009E-03 
577	 4.47150488531152E-03 
578	 4.45307756847918E-03 
579	 4.43210604366106E-03 
580	 4.41316383661551E-03 
581	 4.4083986668184E-03 
582	 4.40573177971671E-03 
583	 4.39842173266052E-03 
584	 4.39581431703122E-03 
585	 4.39327537602118E-03 
586	 4.38024194460493E-03 
587	 4.37020958314264E-03 
588	 4.36691343797742E-03 
589	 4.36683190041645E-03 
590	 4.36326375780432E-03 
591	 4.35036431281258E-03 
592	 4.33676177348624E-03 
593	 4.32130648215963E-03 
594	 4.29415752136575E-03 
595	 4.27268939343536E-03 
596	 4.26307107592973E-03 
597	 4.24417361091258E-03 
598	 4.22246869971768E-03 
599	 4.21139310345553E-03 
600	 4.19696035247571E-03 
601	 4.17659022033747E-03 
602	 4.15554257102155E-03 
603	 4.13590379552919E-03 
604	 4.11928469832715E-03 
605	 4.10418340101913E-03 
606	 4.08898371521594E-03 
607	 4.0706364339718E-03 
608	 4.05317379311945E-03 
609	 4.03787060901382E-03 
610	 4.01951575635231E-03 
611	 4.00472733244634E-03 
612	 4.00207625015593E-03 
613	 3.98711016822328E-03 
614	 3.95944646127427E-03 
615	 3.94095921888345E-03 
616	 3.92074102632328E-03 
617	 3.89270475108078E-03 
618	 3.86776279820228E-03 
619	 3.84962563808216E-03 
620	 3.84319517604379E-03 
621	 3.83177268958413E-03 
622	 3.80864784910183E-03 
623	 3.77477495646127E-03 
624	 3.74233496525779E-03 
625	 3.72366411705322E-03 
626	 3.70667251027662E-03 
627	 3.68696268007736E-03 
628	 3.66043979971917E-03 
629	 3.63377369757634E-03 
630	 3.61102229388662E-03 
631	 3.59398302601408E-03 
632	 3.57551651234677E-03 
633	 3.5431051433771E-03 
634	 3.51953601881029E-03 
635	 3.50786304185229E-03 
636	 3.4907435454205E-03 
637	 3.46681915801264E-03 
638	 3.43667047141689E-03 
639	 3.41928843167618E-03 
640	 3.40953143091114E-03 
641	 3.38371758594332E-03 
642	 3.3618461181052E-03 
643	 3.35019632082426E-03 
644	 3.33461363660064E-03 
645	 3.31744538892201E-03 
646	 3.30357382008178E-03 
647	 3.28320859910902E-03 
648	 3.2571239091151E-03 
649	 0.003236993335083 
650	 3.21713557211109E-03 
651	 3.19442496200727E-03 
652	 3.17616605530115E-03 
653	 3.16368007063031E-03 
654	 3.15895002841164E-03 
655	 3.14338878826135E-03 
656	 3.11525470295786E-03 
657	 3.1015458614317E-03 
658	 3.09300470434728E-03 
659	 3.07844346165559E-03 
660	 3.07102963002046E-03 
661	 3.06540541230437E-03 
662	 3.03689586636038E-03 
663	 3.01555989636476E-03 
664	 3.01366409720603E-03 
665	 2.99683602571075E-03 
666	 2.9774393163472E-03 
667	 2.9816920693217E-03 
668	 2.97756673709857E-03 
669	 2.96097922572013E-03 
670	 2.95600925927637E-03 
671	 2.9488192486898E-03 
672	 2.92924558696891E-03 
673	 2.92133905795106E-03 
674	 2.91886955211522E-03 
675	 2.89344084563834E-03 
676	 2.88255322054716E-03 
677	 2.89434623105148E-03 
678	 2.88864450052638E-03 
679	 2.87509041465615E-03 
680	 2.86932611340439E-03 
681	 2.86923704352416E-03 
682	 2.86887164999488E-03 
683	 2.84743921921906E-03 
684	 2.83735868334152E-03 
685	 2.85356967626125E-03 
686	 2.84623559964972E-03 
687	 2.82730357631209E-03 
688	 2.83059919730901E-03 
689	 2.83013782048645E-03 
690	 2.82099579421009E-03 
691	 2.81700787056448E-03 
692	 2.81563551770116E-03 
693	 2.81410304684228E-03 
694	 2.81352850188904E-03 
695	 2.81240637521871E-03 
696	 0.002806406103726 
697	 2.80200625295865E-03 
698	 2.80190469617499E-03 
699	 2.80290150097937E-03 
700	 2.80440131015338E-03 
701	 2.80600021538752E-03 
702	 2.8043876886155E-03 
703	 2.80029135207165E-03 
704	 2.79880192456952E-03 
705	 2.80117724810733E-03 
706	 2.80619750748736E-03 
707	 2.79511148506053E-03 
708	 2.78003768557245E-03 
709	 2.7889103072902E-03 
710	 2.79576120948495E-03 
711	 2.79517997963822E-03 
712	 2.80291033246173E-03 
713	 2.80765265571159E-03 
714	 2.79954269736939E-03 
715	 2.80268650314214E-03 
716	 2.8124851217428E-03 
717	 2.8036867735121E-03 
718	 2.79571546937786E-03 
719	 2.79692030638558E-03 
720	 2.80351624169921E-03 
721	 2.81267832381226E-03 
722	 2.82128331566136E-03 
723	 2.82411086488077E-03 
724	 2.82286327778522E-03 
725	 2.82768205132585E-03 
726	 2.83570676856581E-03 
727	 2.84399893534922E-03 
728	 2.84380187696557E-03 
729	 2.84022759035988E-03 
730	 2.84480306306012E-03 
731	 2.84969148811868E-03 
732	 2.85158994841028E-03 
733	 2.84612034773789E-03 
734	 2.84372661661808E-03 
735	 2.85270557198083E-03 
736	 2.85561439408803E-03 
737	 2.85319779487638E-03 
738	 2.85462425070334E-03 
739	 2.86266848385846E-03 
740	 2.87608482632544E-03 
741	 2.88019149667984E-03 
742	 2.87905039371344E-03 
743	 2.87906464066545E-03 
744	 2.88052260610887E-03 
745	 2.88421264842419E-03 
746	 2.89183823010556E-03 
747	 2.89722053244003E-03 
748	 2.89783575044534E-03 
749	 2.90341399264538E-03 
750	 2.90849532063778E-03 
751	 2.90264428987948E-03 
752	 2.90265976535018E-03 
753	 2.91103982234386E-03 
754	 2.91722637956253E-03 
755	 2.92505538015943E-03 
756	 2.9365899220593E-03 
757	 2.94366834531972E-03 
758	 2.94682628243554E-03 
759	 2.94925344495989E-03 
760	 2.95680140753642E-03 
761	 2.96772756544913E-03 
762	 2.96346165299564E-03 
763	 2.95659989933274E-03 
764	 2.95958202135586E-03 
765	 2.96049826223285E-03 
766	 2.96299906660499E-03 
767	 2.98522405656303E-03 
768	 2.9925872458556E-03 
769	 2.97672212961016E-03 
770	 2.97861298200923E-03 
771	 2.98803997870379E-03 
772	 2.98895885085568E-03 
773	 2.99320663756497E-03 
774	 2.99971856380153E-03 
775	 2.99689283322987E-03 
776	 2.99888382375038E-03 
777	 3.01052081246059E-03 
778	 3.01014111097539E-03 
779	 3.0045595958576E-03 
780	 3.0071867067416E-03 
781	 3.01526533481912E-03 
782	 3.02397520318118E-03 
783	 3.01748447437636E-03 
784	 3.01419964504964E-03 
785	 3.02601119376192E-03 
786	 3.04417426203058E-03 
787	 3.05637323249408E-03 
788	 3.04283583951996E-03 
789	 3.03765790869383E-03 
790	 3.04708103879676E-03 
791	 3.04813445719746E-03 
792	 3.04814950874021E-03 
793	 3.05347780832509E-03 
794	 3.06337814635151E-03 
795	 3.0721152583477E-03 
796	 3.06683790340386E-03 
797	 3.06863723612702E-03 
798	 3.08176878962215E-03 
799	 3.08975695589894E-03 
800	 3.09127532295466E-03 
801	 3.08606423473212E-03 
802	 3.07558988450315E-03 
803	 3.06727031938328E-03 
804	 3.07913236412092E-03 
805	 3.08544991186292E-03 
806	 3.07900769475735E-03 
807	 3.07901644467442E-03 
808	 3.08024808831933E-03 
809	 3.07655227661233E-03 
810	 3.08806233116149E-03 
811	 3.11114401479442E-03 
812	 3.12701619964225E-03 
813	 3.12814265711496E-03 
814	 3.11485617749504E-03 
815	 3.11432694937454E-03 
816	 3.12112281480252E-03 
817	 3.12558622424803E-03 
818	 3.12900574650525E-03 
819	 3.13191573163808E-03 
820	 3.13728873262837E-03 
821	 3.13604028809924E-03 
822	 3.12727128742315E-03 
823	 3.13543927306152E-03 
824	 3.14487662713873E-03 
825	 3.13284302263693E-03 
826	 3.13135266601441E-03 
827	 3.14180920789652E-03 
828	 3.14300597433674E-03 
829	 3.14452510646543E-03 
830	 3.1503259684027E-03 
831	 3.15411456200561E-03 
832	 3.15567935120832E-03 
833	 3.15561026617385E-03 
834	 3.15777410188032E-03 
835	 3.16149601366714E-03 
836	 3.16037630651343E-03 
837	 3.16026054491557E-03 
838	 3.16362830148091E-03 
839	 3.16246871176284E-03 
840	 3.16460492128895E-03 
841	 3.18184817601094E-03 
842	 3.19002353517455E-03 
843	 3.18424442188219E-03 
844	 3.16982522943524E-03 
845	 3.16097173893462E-03 
846	 3.16654606103771E-03 
847	 3.18388974957248E-03 
848	 3.2007397043638E-03 
849	 3.20109960419227E-03 
850	 3.20267939111844E-03 
851	 3.20539635458996E-03 
852	 3.19182671577434E-03 
853	 3.18655523681517E-03 
854	 3.19888318415326E-03 
855	 3.1917760614982E-03 
856	 3.17727540705104E-03 
857	 3.17728687113371E-03 
858	 3.19404781990275E-03 
859	 3.21578070210932E-03 
860	 3.20112778684844E-03 
861	 3.19621057697166E-03 
862	 3.21910321324726E-03 
863	 3.21872532645704E-03 
864	 3.2034578334554E-03 
865	 3.19130505093483E-03 
866	 3.19072377215836E-03 
867	 3.19962707759501E-03 
868	 3.20152529052847E-03 
869	 3.20989846819448E-03 
870	 3.22756970982731E-03 
871	 0.003233706213392 
872	 3.2313960535281E-03 
873	 3.22708134543049E-03 
874	 3.21835023847847E-03 
875	 3.21034485361678E-03 
876	 3.21690803923025E-03 
877	 3.22622462845345E-03 
878	 3.23280967288502E-03 
879	 3.23860821347168E-03 
880	 3.24098169307358E-03 
881	 3.23722586963593E-03 
882	 3.22393199299799E-03 
883	 3.20986321826339E-03 
884	 3.2182204108161E-03 
885	 3.2311683130113E-03 
886	 3.23758429964319E-03 
887	 3.21622127812941E-03 
888	 3.20195979097409E-03 
889	 3.22530227429642E-03 
890	 3.2311350542793E-03 
891	 3.22334186837106E-03 
892	 3.23323091642193E-03 
893	 3.24256182799267E-03 
894	 3.24546389582065E-03 
895	 3.24515831703759E-03 
896	 3.23345439141725E-03 
897	 3.20910066396456E-03 
898	 3.22275736492439E-03 
899	 3.25136629654954E-03 
900	 3.24033939094722E-03 
901	 3.21996258367161E-03 
902	 3.20771415205061E-03 
903	 3.23582558044295E-03 
904	 3.25629020125369E-03 
905	 3.24134008468089E-03 
906	 3.22678551589881E-03 
907	 3.2234150209659E-03 
908	 3.23936837545525E-03 
909	 3.23701225658046E-03 
910	 3.21816500481847E-03 
911	 3.22205716349637E-03 
912	 3.21785551515132E-03 
913	 3.19766678475353E-03 
914	 3.20371452428005E-03 
915	 3.21805180968529E-03 
916	 3.21759318068389E-03 
917	 3.23002223050572E-03 
918	 3.24323390264668E-03 
919	 3.21102827151783E-03 
920	 3.1955718726937E-03 
921	 3.21202612436539E-03 
922	 3.21924320506334E-03 
923	 3.21516469245964E-03 
924	 3.20148807528945E-03 
925	 3.19846137368088E-03 
926	 3.20340499512468E-03 
927	 3.20440043894299E-03 
928	 3.21690722410013E-03 
929	 3.2331690547024E-03 
930	 3.20868630136388E-03 
931	 3.19446873918393E-03 
932	 3.21399491877119E-03 
933	 3.20579778196771E-03 
934	 3.18307032873785E-03 
935	 3.17162465768914E-03 
936	 3.17101026128437E-03 
937	 3.18184976000416E-03 
938	 3.20846983594979E-03 
939	 3.21176826603104E-03 
940	 3.18660508387662E-03 
941	 3.19834006030461E-03 
942	 3.20021779909036E-03 
943	 3.15391253408196E-03 
944	 3.13673875973471E-03 
945	 3.15006166194265E-03 
946	 3.17086587040758E-03 
947	 3.20283713191608E-03 
948	 3.2273745258422E-03 
949	 3.18243686531442E-03 
950	 3.13876392938371E-03 
951	 3.1372827589057E-03 
952	 3.15022530089692E-03 
953	 3.15877537177587E-03 
954	 3.14625351490441E-03 
955	 3.18022731484244E-03 
956	 3.23502647384697E-03 
957	 3.21202682919312E-03 
958	 3.16251069738564E-03 
959	 3.12134896083049E-03 
960	 3.16319262156834E-03 
961	 3.18752661980122E-03 
962	 3.12852461785306E-03 
963	 3.12694508090519E-03 
964	 3.16245017589411E-03 
965	 3.17392028692667E-03 
966	 3.18654380586168E-03 
967	 3.19417177748287E-03 
968	 3.16108296623669E-03 
969	 3.14568768585969E-03 
970	 3.16651682557488E-03 
971	 3.1727125933909E-03 
972	 3.1716255107865E-03 
973	 3.17252292551709E-03 
974	 3.16985474342255E-03 
975	 3.16013990047214E-03 
976	 3.13793390405801E-03 
977	 3.13564652891892E-03 
978	 3.14881792425648E-03 
979	 3.12504014853176E-03 
980	 3.12174312641413E-03 
981	 3.15328536932658E-03 
982	 3.13269199714506E-03 
983	 3.07579096950185E-03 
984	 3.01223018658497E-03 
985	 3.00221798197457E-03 
986	 3.03348380774565E-03 
987	 3.05475274354905E-03 
988	 3.13175774764391E-03 
989	 3.22700427260574E-03 
990	 3.14992686740566E-03 
991	 3.07523125315172E-03 
992	 3.08377760024871E-03 
993	 3.04689024815825E-03 
994	 3.02661017465265E-03 
995	 3.08759509146549E-03 
996	 3.10864505768115E-03 
997	 3.07668813973143E-03 
998	 3.0121327673151E-03 
999	 2.96240479129734E-03 
1000	 2.95464184061412E-03 
1001	 3.01865455351183E-03 
1002	 3.07628325558949E-03 
1003	 3.08262416845712E-03 
1004	 3.04447415822056E-03 
1005	 3.00542548968415E-03 
1006	 3.00300850076371E-03 
1007	 2.95442858476857E-03 
1008	 2.93026037178844E-03 
1009	 3.07744895419948E-03 
1010	 3.06723855500718E-03 
1011	 2.91043248207387E-03 
1012	 2.94581874529257E-03 
1013	 3.01464376268062E-03 
1014	 3.0401888315837E-03 
1015	 2.98368122986765E-03 
1016	 2.9750295455022E-03 
1017	 3.10087412298709E-03 
1018	 3.11279712326597E-03 
1019	 3.03748011919805E-03 
1020	 2.97274281480901E-03 
1021	 2.9710206900764E-03 
1022	 3.01634909793179E-03 
1023	 3.02648484520963E-03 
1024	 2.96907079374967E-03 
1025	 2.87418407310848E-03 
1026	 2.93250629207013E-03 
1027	 3.0013748300837E-03 
1028	 2.99090808910087E-03 
1029	 2.99508796228171E-03 
1030	 3.02301311822247E-03 
1031	 3.06697548409263E-03 
1032	 3.00273496322597E-03 
1033	 2.9226976740969E-03 
1034	 3.0579040566305E-03 
1035	 3.12551840687599E-03 
1036	 3.05562360368032E-03 
1037	 2.89749159563864E-03 
1038	 2.82941805894725E-03 
1039	 2.91129586455922E-03 
1040	 2.96592111751634E-03 
1041	 2.93927725911807E-03 
1042	 2.83087368457973E-03 
1043	 2.96198142127412E-03 
1044	 3.09467438585249E-03 
1045	 2.86833834540423E-03 
1046	 2.80957320503025E-03 
1047	 2.92065986184575E-03 
1048	 2.93141038915688E-03 
1049	 2.90276360015739E-03 
1050	 2.90700852424607E-03 
1051	 3.19751475556929E-03 
1052	 3.26568894453746E-03 
1053	 2.95126275313483E-03 
1054	 2.89806801670201E-03 
1055	 2.97466462434815E-03 
1056	 3.01159803949206E-03 
1057	 2.89713685985711E-03 
1058	 2.70415512606951E-03 
1059	 2.57043641284479E-03 
1060	 2.65141957420385E-03 
1061	 2.87068384733316E-03 
1062	 2.97940557366145E-03 
1063	 2.96234758664994E-03 
1064	 2.87318596573019E-03 
1065	 2.97850436189591E-03 
1066	 2.87883762750157E-03 
1067	 2.52106359538386E-03 
1068	 2.56966767310497E-03 
1069	 2.90147045890052E-03 
1070	 3.27670308305666E-03 
1071	 2.90729367479052E-03 
1072	 2.46016773612698E-03 
1073	 2.79000005793668E-03 
1074	 2.97059964225096E-03 
1075	 2.94102126605901E-03 
