Wavelength	9H00006.asd
325	 2.75788698344773E-05 
326	 6.0901983432315E-05 
327	 5.21575170953207E-05 
328	 8.93851530760241E-06 
329	 6.6710125975834E-06 
330	 1.91112453053046E-05 
331	 2.08129641205302E-05 
332	 1.85268665594051E-05 
333	 9.76100076608273E-06 
334	-1.84219306465372E-05 
335	-1.37730054437181E-05 
336	 2.86474260941052E-05 
337	 3.34906043372323E-05 
338	 3.7280729491703E-05 
339	 7.36294516054867E-05 
340	 5.26114427393798E-05 
341	-3.59369435790065E-06 
342	-9.20954936994055E-06 
343	 1.11752885133047E-05 
344	 4.29568626600425E-05 
345	 5.30004751036712E-05 
346	 5.24658146183854E-05 
347	 5.5488812498371E-05 
348	 5.55546572253774E-05 
349	 5.36269989003928E-05 
350	 5.60113682457786E-05 
351	 4.78918990429054E-05 
352	 2.83103685955034E-05 
353	 2.94730329946367E-05 
354	 3.6727888552937E-05 
355	 2.9624026835205E-05 
356	 2.53071907244458E-05 
357	 2.67173622479846E-05 
358	 2.96729761401146E-05 
359	 4.13505002136556E-05 
360	 6.02925378019937E-05 
361	 4.80951692686753E-05 
362	 3.1756141390537E-05 
363	 5.71830462355808E-05 
364	 6.7227466452599E-05 
365	 5.35869492039305E-05 
366	 4.22662198450196E-05 
367	 4.51160011519226E-05 
368	 6.59041371097415E-05 
369	 6.0484655422798E-05 
370	 4.23586114981982E-05 
371	 4.90300867235816E-05 
372	 5.28082388816257E-05 
373	 5.0300737560417E-05 
374	 6.45466729400577E-05 
375	 7.46222141288957E-05 
376	 6.43093251500755E-05 
377	 6.44555735136517E-05 
378	 6.94103855487127E-05 
379	 5.02485946712908E-05 
380	 5.39714421227106E-05 
381	 8.560454357114E-05 
382	 8.27666261180807E-05 
383	 6.96282978685178E-05 
384	 7.42421192278489E-05 
385	 8.65814149897977E-05 
386	 9.78954749848343E-05 
387	 8.85752519937422E-05 
388	 8.42876674912567E-05 
389	 9.50107269972825E-05 
390	 1.10106918556309E-04 
391	 1.16227470049418E-04 
392	 9.89891945972857E-05 
393	 1.05999967697518E-04 
394	 1.37230772257163E-04 
395	 1.58235283024784E-04 
396	 1.62089741430846E-04 
397	 1.4945608313601E-04 
398	 1.60392413723615E-04 
399	 1.8080277478176E-04 
400	 1.80548890690447E-04 
401	 1.81052069111813E-04 
402	 1.90563649189054E-04 
403	 2.19774197846719E-04 
404	 2.37931220160999E-04 
405	 2.27487306847231E-04 
406	 2.51824869825214E-04 
407	 2.96125337367163E-04 
408	 3.09673299884608E-04 
409	 3.19470239530563E-04 
410	 3.38993304593883E-04 
411	 3.8972949154135E-04 
412	 4.43713603495749E-04 
413	 4.75007990596584E-04 
414	 5.40918643976295E-04 
415	 6.33404392193753E-04 
416	 6.99886275791702E-04 
417	 7.7703490260206E-04 
418	 8.81820856158118E-04 
419	 1.01111581367956E-03 
420	 1.15912385204716E-03 
421	 1.31777812596433E-03 
422	 1.50155480220159E-03 
423	 1.7158129345821E-03 
424	 1.96050401691986E-03 
425	 2.23562240242533E-03 
426	 2.5419218884509E-03 
427	 2.88131340026963E-03 
428	 3.26130519274236E-03 
429	 3.69489835132752E-03 
430	 4.16042332685296E-03 
431	 4.65862603435825E-03 
432	 5.21974427155138E-03 
433	 5.84074821657082E-03 
434	 6.51882418901384E-03 
435	 7.25772595650755E-03 
436	 8.05877937362232E-03 
437	 8.92260162955865E-03 
438	 9.85201854540135E-03 
439	 1.08421793909434E-02 
440	 1.18687795243186E-02 
441	 1.29094022212134E-02 
442	 1.39399975976835E-02 
443	 1.49391152046812E-02 
444	 1.58502755773602E-02 
445	 1.65656239145226E-02 
446	 0.017057190775348 
447	 0.017296792882177 
448	 1.72709186489401E-02 
449	 0.016970060817133 
450	 1.63771576063877E-02 
451	 1.55700396974307E-02 
452	 1.46135974394385E-02 
453	 1.35982450194831E-02 
454	 1.25629845976833E-02 
455	 0.011545819141196 
456	 1.05842614923509E-02 
457	 9.71351412686551E-03 
458	 8.98168311583696E-03 
459	 8.35387951200068E-03 
460	 7.80577405723874E-03 
461	 7.30342908830055E-03 
462	 6.85349025887704E-03 
463	 6.47248502912662E-03 
464	 6.09453952864682E-03 
465	 5.71158532118823E-03 
466	 5.37215605588935E-03 
467	 5.04810487967421E-03 
468	 4.72323351658733E-03 
469	 4.42976652323086E-03 
470	 4.1740248270566E-03 
471	 3.95752087009015E-03 
472	 3.76808891206588E-03 
473	 3.60329772077187E-03 
474	 3.47470703889988E-03 
475	 3.37980579346948E-03 
476	 3.31438972719231E-03 
477	 3.25858976407821E-03 
478	 3.21246045686008E-03 
479	 3.19261012095395E-03 
480	 3.18607374125901E-03 
481	 3.18617191327687E-03 
482	 3.19697621353642E-03 
483	 3.21630251062539E-03 
484	 3.24090167248405E-03 
485	 3.26893876121904E-03 
486	 3.29816040890152E-03 
487	 3.32125353609422E-03 
488	 3.35560326393634E-03 
489	 3.41325928367475E-03 
490	 3.46856997140222E-03 
491	 3.5177408940676E-03 
492	 3.5616626777711E-03 
493	 3.61621737183868E-03 
494	 3.68553137529124E-03 
495	 3.75574525972656E-03 
496	 3.81650106377482E-03 
497	 3.85775642948741E-03 
498	 3.90296967116014E-03 
499	 3.95452346735057E-03 
500	 4.00141437547435E-03 
501	 4.03952071518155E-03 
502	 4.06895577310223E-03 
503	 4.11501711835344E-03 
504	 4.16504164461964E-03 
505	 4.1903895777338E-03 
506	 4.21213213211921E-03 
507	 4.2365676745532E-03 
508	 4.2604184274634E-03 
509	 4.28496277868367E-03 
510	 4.31078209604668E-03 
511	 4.32926854509218E-03 
512	 4.34126868915012E-03 
513	 4.35271493842387E-03 
514	 4.36886226293444E-03 
515	 4.38922310832152E-03 
516	 4.39165889236266E-03 
517	 4.39037641536129E-03 
518	 4.40881202569534E-03 
519	 4.42734007123286E-03 
520	 4.44043604001116E-03 
521	 4.45007031770627E-03 
522	 4.45384187047485E-03 
523	 4.45132686724153E-03 
524	 4.45610241724704E-03 
525	 4.46636858852437E-03 
526	 4.47137892549391E-03 
527	 4.48199844599777E-03 
528	 4.49960005113972E-03 
529	 4.51019267251159E-03 
530	 4.51993530898945E-03 
531	 4.53740023234121E-03 
532	 4.54838058117709E-03 
533	 4.5517316941511E-03 
534	 4.55391502693794E-03 
535	 4.56034632909612E-03 
536	 4.57436604104468E-03 
537	 4.59277251642541E-03 
538	 4.60838755289577E-03 
539	 4.6086091969645E-03 
540	 4.6129875575886E-03 
541	 4.62564650291283E-03 
542	 4.63285639816838E-03 
543	 4.63842756159186E-03 
544	 4.64645609184179E-03 
545	 4.64854209481471E-03 
546	 4.64677854199111E-03 
547	 4.65237334642981E-03 
548	 4.65598292022769E-03 
549	 4.65453187129708E-03 
550	 4.66230225446433E-03 
551	 4.66984506797253E-03 
552	 4.65971167579298E-03 
553	 4.65075858923659E-03 
554	 4.64844814676236E-03 
555	 4.64958322003736E-03 
556	 4.65213836432053E-03 
557	 4.65433122727609E-03 
558	 4.65090933836335E-03 
559	 4.64359498265559E-03 
560	 4.63974486128061E-03 
561	 4.63429967076304E-03 
562	 4.62564690013996E-03 
563	 4.61547442137723E-03 
564	 4.60669282222927E-03 
565	 4.60297445584831E-03 
566	 4.59414503924815E-03 
567	 4.58092804496578E-03 
568	 4.57557587521737E-03 
569	 4.57308449090526E-03 
570	 4.5687320117054E-03 
571	 4.55335318798204E-03 
572	 4.53503087436061E-03 
573	 4.53581878117073E-03 
574	 4.53133586386059E-03 
575	 4.51405354997826E-03 
576	 4.49410815556616E-03 
577	 4.47950778240364E-03 
578	 4.47767321215148E-03 
579	 4.45785700783411E-03 
580	 4.42474089999449E-03 
581	 4.41634396357135E-03 
582	 4.41508881503926E-03 
583	 4.41052567021432E-03 
584	 4.4056303683408E-03 
585	 4.39934630719347E-03 
586	 4.38946845015794E-03 
587	 4.38232621332146E-03 
588	 4.37824292530537E-03 
589	 4.36945972298211E-03 
590	 4.35695039207428E-03 
591	 4.34256575347315E-03 
592	 4.33410993242128E-03 
593	 4.32823666379394E-03 
594	 4.31141144683569E-03 
595	 4.29300452924064E-03 
596	 4.27658834376557E-03 
597	 4.25405148357928E-03 
598	 4.23294467111575E-03 
599	 4.22592096966444E-03 
600	 4.21344046200829E-03 
601	 4.19088076397963E-03 
602	 4.16253709796398E-03 
603	 4.13997884180532E-03 
604	 4.13123811306865E-03 
605	 4.11653074946138E-03 
606	 4.09456527107978E-03 
607	 4.07137846268536E-03 
608	 4.04859340279791E-03 
609	 4.0288975952127E-03 
610	 4.01774308183416E-03 
611	 4.01065044977644E-03 
612	 4.00143360786373E-03 
613	 3.98260207627822E-03 
614	 3.95698372558643E-03 
615	 3.94252747831656E-03 
616	 3.92301087180157E-03 
617	 3.89035981969309E-03 
618	 3.87348679868417E-03 
619	 3.86565492732328E-03 
620	 3.84561953240453E-03 
621	 3.81839116115203E-03 
622	 3.78802570874039E-03 
623	 3.7679626693268E-03 
624	 3.75163525618807E-03 
625	 3.73122014831308E-03 
626	 3.70370418743561E-03 
627	 3.67438233395739E-03 
628	 3.6623354368319E-03 
629	 3.64618871866091E-03 
630	 3.61618177937402E-03 
631	 3.59055460349689E-03 
632	 3.56890232702028E-03 
633	 3.54646040544262E-03 
634	 3.52818904958988E-03 
635	 3.51298879781531E-03 
636	 3.49088774933889E-03 
637	 3.46734001883448E-03 
638	 3.44717879005931E-03 
639	 3.42580021299501E-03 
640	 3.40454283315944E-03 
641	 3.38975458880518E-03 
642	 3.3707534016637E-03 
643	 3.34483280496324E-03 
644	 3.32471058218493E-03 
645	 3.30922940922056E-03 
646	 3.29521245465799E-03 
647	 3.2800585044877E-03 
648	 3.26235129796556E-03 
649	 3.24060223599223E-03 
650	 3.22018097940218E-03 
651	 3.20441936614765E-03 
652	 3.18709613575593E-03 
653	 3.16851594473856E-03 
654	 3.15162067462527E-03 
655	 3.13227784412957E-03 
656	 3.11099399870723E-03 
657	 3.09593010818275E-03 
658	 3.08603322515399E-03 
659	 3.07925502711613E-03 
660	 3.06812279659008E-03 
661	 3.05237889204557E-03 
662	 3.03600804907921E-03 
663	 3.02448368792477E-03 
664	 3.01877874598355E-03 
665	 3.00175106760968E-03 
666	 2.98282914188299E-03 
667	 2.98015028870675E-03 
668	 2.97458364607239E-03 
669	 2.96370728080067E-03 
670	 2.96246315312695E-03 
671	 2.95706721253652E-03 
672	 2.93756020624078E-03 
673	 2.92788986133973E-03 
674	 2.92393523003882E-03 
675	 2.90294614218611E-03 
676	 2.89228642567294E-03 
677	 2.89826654376858E-03 
678	 2.89437548149475E-03 
679	 2.88422055260163E-03 
680	 2.87496043381213E-03 
681	 2.86738947002994E-03 
682	 2.85999443881723E-03 
683	 2.84369434260483E-03 
684	 2.8388330396023E-03 
685	 2.85349344601186E-03 
686	 2.84642528816514E-03 
687	 2.82857636445732E-03 
688	 2.82958897911732E-03 
689	 2.83169217083633E-03 
690	 2.82926574510619E-03 
691	 2.82069335699399E-03 
692	 2.81672568530491E-03 
693	 2.82587430775958E-03 
694	 2.82343615400695E-03 
695	 2.81386760432984E-03 
696	 2.82358140672246E-03 
697	 2.82470055052543E-03 
698	 2.80854551157944E-03 
699	 2.79551696117293E-03 
700	 2.79463189327852E-03 
701	 2.81441896589389E-03 
702	 2.82127093243864E-03 
703	 2.81172917139271E-03 
704	 2.80694046455597E-03 
705	 2.80589742489882E-03 
706	 2.80661948125549E-03 
707	 2.79455629409822E-03 
708	 2.77988560084079E-03 
709	 2.78540778506065E-03 
710	 2.79322943666892E-03 
711	 2.79782949017966E-03 
712	 2.80211611416406E-03 
713	 2.80427053738995E-03 
714	 2.8027074591451E-03 
715	 2.79909498446299E-03 
716	 2.79715862773749E-03 
717	 2.80606015074064E-03 
718	 2.81085867968417E-03 
719	 2.80673513690516E-03 
720	 2.80651765520375E-03 
721	 2.81136436142016E-03 
722	 2.82111987411978E-03 
723	 2.82396352444633E-03 
724	 2.82107491197648E-03 
725	 2.82710164096137E-03 
726	 2.83677945638372E-03 
727	 2.84492667770173E-03 
728	 2.8366841664201E-03 
729	 2.8255411283141E-03 
730	 2.83975660626345E-03 
731	 0.002849698197483 
732	 2.84825769668472E-03 
733	 2.84705642928794E-03 
734	 2.84786311123537E-03 
735	 2.85193053139214E-03 
736	 2.85924374826203E-03 
737	 2.86621628744596E-03 
738	 2.86369984704387E-03 
739	 2.86412346148685E-03 
740	 2.87131127583665E-03 
741	 2.87685853418231E-03 
742	 2.88105148852263E-03 
743	 0.002885062115768 
744	 2.88610448457522E-03 
745	 2.88521912664757E-03 
746	 2.88662172329146E-03 
747	 2.89157808186398E-03 
748	 2.90009496161038E-03 
749	 2.90767951945832E-03 
750	 2.9100515142036E-03 
751	 2.90127486517967E-03 
752	 2.9033086174034E-03 
753	 2.91737352951871E-03 
754	 2.92168787260529E-03 
755	 2.92570179045655E-03 
756	 2.93595974181336E-03 
757	 2.94436596178219E-03 
758	 2.95000423243779E-03 
759	 2.9531843793525E-03 
760	 2.95981569265199E-03 
761	 2.96868557423199E-03 
762	 2.96389344896202E-03 
763	 2.95696605251146E-03 
764	 2.95952009120077E-03 
765	 2.96750434200781E-03 
766	 2.97621753720285E-03 
767	 2.97567904984752E-03 
768	 2.97445212132328E-03 
769	 2.97604329366274E-03 
770	 2.97873087769836E-03 
771	 2.98265719129923E-03 
772	 2.98814047094468E-03 
773	 2.99680200268108E-03 
774	 3.00648966792933E-03 
775	 0.003010614324035 
776	 3.0120416202278E-03 
777	 3.01181241529289E-03 
778	 3.00516680329094E-03 
779	 3.00170481553405E-03 
780	 3.01574012480735E-03 
781	 3.02867749123014E-03 
782	 3.03413214241299E-03 
783	 3.03038178064813E-03 
784	 3.02350843827175E-03 
785	 3.02000012969035E-03 
786	 3.0367428489546E-03 
787	 3.05748131857575E-03 
788	 3.04913796844231E-03 
789	 3.04274075710387E-03 
790	 3.0458305552383E-03 
791	 3.04711171887401E-03 
792	 3.05038710590119E-03 
793	 3.05824296968566E-03 
794	 3.06294619898108E-03 
795	 3.06618622282739E-03 
796	 3.07446347699906E-03 
797	 3.08379104410123E-03 
798	 3.09204227253413E-03 
799	 3.09786883186007E-03 
800	 3.09570775136621E-03 
801	 3.08190211418897E-03 
802	 3.07746046234302E-03 
803	 3.08247275252813E-03 
804	 3.0858037013594E-03 
805	 3.09057145316414E-03 
806	 3.09516134817067E-03 
807	 3.08793155137918E-03 
808	 3.08081468110422E-03 
809	 3.08687424758604E-03 
810	 3.09044416182871E-03 
811	 3.09470269933176E-03 
812	 3.1195590285677E-03 
813	 3.13727624319067E-03 
814	 3.13579891526463E-03 
815	 3.12434421630333E-03 
816	 3.11335130634384E-03 
817	 3.11406411336333E-03 
818	 3.12440946186035E-03 
819	 3.13804103485028E-03 
820	 3.13844706610817E-03 
821	 3.13649965748104E-03 
822	 3.13783725373537E-03 
823	 3.14258017239085E-03 
824	 3.14697782963568E-03 
825	 3.14619421671684E-03 
826	 3.14244806107326E-03 
827	 3.13827572192478E-03 
828	 3.13826223636893E-03 
829	 3.14490434911799E-03 
830	 3.15763380437509E-03 
831	 3.16433182290023E-03 
832	 3.16563112677022E-03 
833	 3.16451186167454E-03 
834	 3.16025939475837E-03 
835	 3.15543711975627E-03 
836	 3.15656012632112E-03 
837	 3.16100468729721E-03 
838	 3.16719967773303E-03 
839	 3.17491891451608E-03 
840	 3.18301214795099E-03 
841	 3.19004784475894E-03 
842	 3.19622175907063E-03 
843	 3.20013911027982E-03 
844	 3.19886943044877E-03 
845	 3.18839037081701E-03 
846	 3.17187432473605E-03 
847	 3.18637077639029E-03 
848	 3.20795986360465E-03 
849	 3.19764218966867E-03 
850	 3.19435294981025E-03 
851	 3.20082568984099E-03 
852	 3.19142269642497E-03 
853	 3.18914629326455E-03 
854	 3.20268410514024E-03 
855	 3.19872154377014E-03 
856	 3.19086004751877E-03 
857	 3.2024073057132E-03 
858	 3.21198401769498E-03 
859	 3.21445956191222E-03 
860	 3.2092737080735E-03 
861	 3.21574564684074E-03 
862	 3.23636966275302E-03 
863	 3.21473883251444E-03 
864	 3.18320964644073E-03 
865	 3.19042199243646E-03 
866	 3.19635753692786E-03 
867	 3.19540049995008E-03 
868	 3.19903067075129E-03 
869	 3.20611113293064E-03 
870	 3.21496295011754E-03 
871	 3.21814980202882E-03 
872	 3.22135337865347E-03 
873	 3.23175832796671E-03 
874	 3.22735708754125E-03 
875	 3.21305122695362E-03 
876	 3.21565773954566E-03 
877	 3.22453927738416E-03 
878	 3.23378580273763E-03 
879	 3.23619296249145E-03 
880	 3.23414738013656E-03 
881	 3.23133987700212E-03 
882	 3.22825472240594E-03 
883	 3.22452552367616E-03 
884	 3.21534416999141E-03 
885	 3.22385205457942E-03 
886	 3.24724339180907E-03 
887	 3.22294798199601E-03 
888	 3.2003364399085E-03 
889	 3.22542903419965E-03 
890	 3.23382350867252E-03 
891	 3.22767411555289E-03 
892	 3.23815328183529E-03 
893	 3.24482110017825E-03 
894	 3.24301151140747E-03 
895	 3.24357192266737E-03 
896	 3.23756851134604E-03 
897	 3.22013518349889E-03 
898	 3.21566809261913E-03 
899	 3.21877045519905E-03 
900	 3.21232538220746E-03 
901	 3.21058884532819E-03 
902	 3.21884071188876E-03 
903	 3.24459042258804E-03 
904	 3.25124941704063E-03 
905	 3.22226076506533E-03 
906	 3.21466168706319E-03 
907	 3.22787347532648E-03 
908	 3.24981999533836E-03 
909	 3.24911384820056E-03 
910	 3.23003613340127E-03 
911	 3.23587865284012E-03 
912	 3.23603265976578E-03 
913	 3.21831024377833E-03 
914	 3.19859891525808E-03 
915	 3.18699391473751E-03 
916	 3.19304175442365E-03 
917	 3.22343922741006E-03 
918	 3.25616775608782E-03 
919	 3.23481226709249E-03 
920	 3.21003282361516E-03 
921	 3.20452456966102E-03 
922	 3.23254134327345E-03 
923	 3.25705818878342E-03 
924	 3.24706514225717E-03 
925	 3.22334793908112E-03 
926	 3.20107574493121E-03 
927	 3.20122012640877E-03 
928	 3.18888493118851E-03 
929	 3.16600814686834E-03 
930	 3.17734793956334E-03 
931	 3.19005584118204E-03 
932	 3.1891308483465E-03 
933	 3.2208956715265E-03 
934	 3.23930604900798E-03 
935	 3.18373726789287E-03 
936	 3.16329809552891E-03 
937	 3.18397174500543E-03 
938	 3.18926785110127E-03 
939	 3.18878195150778E-03 
940	 3.18871690376031E-03 
941	 3.21677437142688E-03 
942	 3.2226212182745E-03 
943	 3.16754373944738E-03 
944	 3.13934842600817E-03 
945	 3.14191388018125E-03 
946	 3.1519050401523E-03 
947	 3.18164056920624E-03 
948	 3.21602760984059E-03 
949	 3.19677363335702E-03 
950	 3.17169176467704E-03 
951	 3.16808796036961E-03 
952	 3.1673402107228E-03 
953	 3.15884877503602E-03 
954	 3.13498064982739E-03 
955	 3.16728366557771E-03 
956	 3.23549989375594E-03 
957	 3.2547948039235E-03 
958	 3.22847354911489E-03 
959	 3.1797792780805E-03 
960	 3.22582833485214E-03 
961	 3.23066512582373E-03 
962	 3.11099455727093E-03 
963	 3.09723111825264E-03 
964	 3.15565953659343E-03 
965	 3.18412428176702E-03 
966	 3.20019490179928E-03 
967	 3.20067545632151E-03 
968	 3.17455769892827E-03 
969	 3.14359813777881E-03 
970	 3.12537695382227E-03 
971	 3.14688575166302E-03 
972	 3.18085448454997E-03 
973	 3.1981816546841E-03 
974	 3.18780629318495E-03 
975	 3.16020752114254E-03 
976	 3.13881343870433E-03 
977	 3.10383072214889E-03 
978	 3.0665191755039E-03 
979	 3.0759037529957E-03 
980	 3.10072565338166E-03 
981	 3.12483771183659E-03 
982	 3.16573415823542E-03 
983	 3.16545510251763E-03 
984	 3.07806691775536E-03 
985	 3.07449116611913E-03 
986	 3.1276775567777E-03 
987	 3.12262657754896E-03 
988	 3.1017368434909E-03 
989	 3.08850456241061E-03 
990	 0.003134699245999 
991	 3.14496707066366E-03 
992	 3.08168496390925E-03 
993	 3.04403243112944E-03 
994	 3.03838908598942E-03 
995	 3.05989424521253E-03 
996	 3.0930819667373E-03 
997	 3.10122672667135E-03 
998	 3.02418156974287E-03 
999	 2.9552552711259E-03 
1000	 0.002930317167167 
1001	 2.95911978324514E-03 
1002	 3.01112671981617E-03 
1003	 3.05751392680301E-03 
1004	 3.05373519928775E-03 
1005	 3.00821077413943E-03 
1006	 2.94409691051121E-03 
1007	 2.96461972971204E-03 
1008	 3.03396083039757E-03 
1009	 3.05649495523081E-03 
1010	 3.04682917298717E-03 
1011	 3.01863315473461E-03 
1012	 3.01621832864502E-03 
1013	 2.97786566330508E-03 
1014	 2.90788362516319E-03 
1015	 2.96243984887331E-03 
1016	 3.0549251769064E-03 
1017	 3.09934663314356E-03 
1018	 3.09286346956056E-03 
1019	 3.0449855795054E-03 
1020	 2.97578399316649E-03 
1021	 2.97602747755968E-03 
1022	 3.02371029949104E-03 
1023	 2.99416739245174E-03 
1024	 2.93617131912609E-03 
1025	 2.89275470572289E-03 
1026	 2.99087216983378E-03 
1027	 3.00478786492813E-03 
1028	 2.83418647310591E-03 
1029	 2.88068373339352E-03 
1030	 2.99860784593673E-03 
1031	 2.97230333874381E-03 
1032	 2.89307254563687E-03 
1033	 2.83046198979088E-03 
1034	 2.88943213967991E-03 
1035	 2.92419600604625E-03 
1036	 2.89561655005811E-03 
1037	 2.8161784941159E-03 
1038	 2.82296027074629E-03 
1039	 2.93560381820401E-03 
1040	 2.89123231732294E-03 
1041	 2.8366769953899E-03 
1042	 2.88883391494208E-03 
1043	 2.86527068649478E-03 
1044	 2.85841237733975E-03 
1045	 3.01351287330355E-03 
1046	 3.08418371028687E-03 
1047	 3.03794587303246E-03 
1048	 2.9331948156077E-03 
1049	 2.86191534011421E-03 
1050	 2.8648932368932E-03 
1051	 2.95092187044513E-03 
1052	 3.00985017284684E-03 
1053	 2.96610329116209E-03 
1054	 2.73635885623207E-03 
1055	 2.66610441937375E-03 
1056	 2.98221163505505E-03 
1057	 2.97785290287959E-03 
1058	 0.002759050127811 
1059	 2.62667343348227E-03 
1060	 2.71339024686755E-03 
1061	 2.92763209302436E-03 
1062	 2.98518403924453E-03 
1063	 2.93597344743735E-03 
1064	 2.83176888453293E-03 
1065	 2.83462941736685E-03 
1066	 2.75784265223379E-03 
1067	 2.58828090819723E-03 
1068	 2.69399301284504E-03 
1069	 2.88135548966906E-03 
1070	 2.96506838199935E-03 
1071	 2.84762907736652E-03 
1072	 2.73556871394422E-03 
1073	 2.87268703192355E-03 
1074	 2.97858558990431E-03 
1075	 2.99275147408156E-03 
