Wavelength	9H00007.asd
325	 9.35236398814737E-05 
326	 2.5562201400075E-05 
327	-8.4845714358552E-06 
328	 2.2945439503203E-05 
329	 2.92370369245045E-05 
330	 2.7252127982219E-05 
331	 3.27450458505525E-05 
332	 2.41961831943502E-05 
333	 2.24855971512941E-06 
334	-2.88228814054205E-05 
335	-3.03656812932369E-05 
336	-1.98113348858094E-07 
337	-3.78869409136007E-06 
338	-1.15525521172266E-05 
339	 6.09836530204979E-06 
340	 1.83060473267814E-05 
341	 1.72289317202145E-05 
342	-6.27746118363443E-06 
343	-5.67167641550149E-06 
344	 3.14242440316344E-05 
345	 7.38903061996184E-05 
346	 9.83614763150535E-05 
347	 8.64467102126024E-05 
348	 6.62223428520095E-05 
349	 5.06313103126585E-05 
350	 5.60766351819126E-05 
351	 5.53013387203283E-05 
352	 3.8604015891839E-05 
353	 2.15823726619979E-05 
354	 1.19261016497163E-05 
355	 1.66024373847675E-05 
356	 2.10190268761342E-05 
357	 2.74233785533506E-05 
358	 5.79618170238113E-05 
359	 7.22719487966974E-05 
360	 5.31085816089541E-05 
361	 3.87402200976319E-05 
362	 3.86437977254773E-05 
363	 5.97814284133421E-05 
364	 6.26683807620686E-05 
365	 4.54120031859805E-05 
366	 4.31628145906939E-05 
367	 4.96472510640412E-05 
368	 5.83741871657463E-05 
369	 5.1340092363908E-05 
370	 3.78960401526072E-05 
371	 4.00678587711376E-05 
372	 4.78875378253276E-05 
373	 5.86342441377387E-05 
374	 7.76661515775305E-05 
375	 7.74852180792173E-05 
376	 4.05197598615049E-05 
377	 3.84645433966233E-05 
378	 6.55897632778812E-05 
379	 8.02794570056237E-05 
380	 8.37817139314787E-05 
381	 7.91384783814112E-05 
382	 9.1025726983036E-05 
383	 9.85941772238671E-05 
384	 8.12419346024751E-05 
385	 8.25300527848465E-05 
386	 9.77374562359772E-05 
387	 8.90171982142749E-05 
388	 8.24800920807433E-05 
389	 9.02825883798293E-05 
390	 1.17695521322656E-04 
391	 1.37500987628212E-04 
392	 0.000116907615355 
393	 1.22915074326293E-04 
394	 1.53990667635756E-04 
395	 1.54491670191922E-04 
396	 1.4514488043812E-04 
397	 1.40076782857555E-04 
398	 1.54984233830647E-04 
399	 1.73984436875946E-04 
400	 1.6857774042849E-04 
401	 1.75784772524976E-04 
402	 2.00095622137223E-04 
403	 2.18561914986778E-04 
404	 2.3418971191449E-04 
405	 2.49621547754639E-04 
406	 2.66044194989245E-04 
407	 2.81592906659207E-04 
408	 2.90270883053879E-04 
409	 3.06665761202027E-04 
410	 3.37972007539708E-04 
411	 3.91700131309146E-04 
412	 4.45091954842212E-04 
413	 4.77990896667561E-04 
414	 5.40589406140616E-04 
415	 6.27062305463959E-04 
416	 6.93955194000134E-04 
417	 7.69942790480716E-04 
418	 8.70145312673728E-04 
419	 1.00191595292034E-03 
420	 1.15627310616442E-03 
421	 1.31969063741425E-03 
422	 1.50840804592412E-03 
423	 1.72691212472641E-03 
424	 1.97259475745116E-03 
425	 2.24380331575166E-03 
426	 2.54170708457946E-03 
427	 2.88147577844149E-03 
428	 3.26386216748344E-03 
429	 3.68435658356972E-03 
430	 4.14924529736547E-03 
431	 4.66123136813763E-03 
432	 5.21715608767431E-03 
433	 5.83122936196559E-03 
434	 6.51704496648561E-03 
435	 7.25960227125654E-03 
436	 8.0574498093807E-03 
437	 8.91278559659204E-03 
438	 9.8365070161623E-03 
439	 1.08278818641618E-02 
440	 1.18618760964136E-02 
441	 1.29085797701477E-02 
442	 1.39345729264735E-02 
443	 1.49234886453938E-02 
444	 1.58236051465155E-02 
445	 0.016536497086403 
446	 0.017032305146271 
447	 1.72801970375572E-02 
448	 1.72554560972491E-02 
449	 1.69518062462522E-02 
450	 0.016362266343829 
451	 1.55564897360674E-02 
452	 1.45971316326887E-02 
453	 1.35764725012736E-02 
454	 1.25375210593767E-02 
455	 1.15219619660098E-02 
456	 1.05641960026788E-02 
457	 9.69717684966656E-03 
458	 8.96513372955299E-03 
459	 8.33658374852762E-03 
460	 7.78889730795061E-03 
461	 7.28969591566256E-03 
462	 6.83814190107806E-03 
463	 6.4401195332665E-03 
464	 6.0685231255105E-03 
465	 5.71045860090176E-03 
466	 5.35619442160884E-03 
467	 5.02179097660941E-03 
468	 4.71864598863714E-03 
469	 4.43075843225775E-03 
470	 4.16792698116362E-03 
471	 3.9537026834203E-03 
472	 3.77082299423439E-03 
473	 3.61252611957404E-03 
474	 3.47553269495965E-03 
475	 3.3694269133488E-03 
476	 3.30315249799929E-03 
477	 3.24833949164778E-03 
478	 3.20439805425078E-03 
479	 3.19190693249993E-03 
480	 3.18949307301289E-03 
481	 3.18660483122562E-03 
482	 3.19374536802151E-03 
483	 3.20867457801906E-03 
484	 3.2265061658412E-03 
485	 3.25423152272723E-03 
486	 3.2901726530212E-03 
487	 3.31955832034814E-03 
488	 3.35550479883104E-03 
489	 3.40785492642107E-03 
490	 3.4639108252162E-03 
491	 3.52034562701003E-03 
492	 3.57627231302347E-03 
493	 3.62858093813493E-03 
494	 3.67821823076317E-03 
495	 3.73699717072937E-03 
496	 3.79770622964883E-03 
497	 3.85084961749474E-03 
498	 3.90183339601179E-03 
499	 3.95005970738836E-03 
500	 3.99005121755636E-03 
501	 4.02888248371616E-03 
502	 4.07045196270371E-03 
503	 4.1109453466498E-03 
504	 4.14757332136625E-03 
505	 4.17691400997982E-03 
506	 4.19724634691018E-03 
507	 4.21379933045734E-03 
508	 4.24985122312116E-03 
509	 4.2889621295981E-03 
510	 4.31438496593298E-03 
511	 4.32601710840006E-03 
512	 4.33103317019981E-03 
513	 4.34846742406868E-03 
514	 4.36485868202343E-03 
515	 4.37496895420412E-03 
516	 4.38566720179374E-03 
517	 4.39737727993628E-03 
518	 4.40991404377407E-03 
519	 4.4218301287431E-03 
520	 4.43235894524432E-03 
521	 4.4410813800513E-03 
522	 4.44821790573419E-03 
523	 4.45440398807083E-03 
524	 4.46327922820402E-03 
525	 4.47361640792894E-03 
526	 4.48059844278059E-03 
527	 4.49083675664408E-03 
528	 4.50496838503135E-03 
529	 4.51322936830802E-03 
530	 4.51963045418446E-03 
531	 4.52992725138371E-03 
532	 4.53554748788045E-03 
533	 4.53798837208477E-03 
534	 4.54801831835743E-03 
535	 4.55919048636493E-03 
536	 4.56809335337063E-03 
537	 4.58038615146248E-03 
538	 4.59519398373277E-03 
539	 4.6102630070079E-03 
540	 4.62017034074303E-03 
541	 4.62397665514727E-03 
542	 4.62710736895082E-03 
543	 4.63173590750191E-03 
544	 4.63942256900027E-03 
545	 4.64588618062003E-03 
546	 4.64901926974292E-03 
547	 4.64569126672248E-03 
548	 4.64268282769076E-03 
549	 4.6441782066483E-03 
550	 4.65184146660871E-03 
551	 4.66023118551714E-03 
552	 4.66107311473802E-03 
553	 4.65406412249108E-03 
554	 4.64282896837831E-03 
555	 4.64080394154491E-03 
556	 4.64607682006997E-03 
557	 4.65568486701061E-03 
558	 4.65255687696496E-03 
559	 4.63957865487665E-03 
560	 4.63335773810328E-03 
561	 4.62477895133939E-03 
562	 4.61264037894877E-03 
563	 4.60915260798516E-03 
564	 4.60950105792408E-03 
565	 4.60596830131236E-03 
566	 4.59131357957002E-03 
567	 4.57061148259712E-03 
568	 4.56880193369275E-03 
569	 4.57045819969059E-03 
570	 4.56363784410582E-03 
571	 4.54750458184362E-03 
572	 4.52867180508311E-03 
573	 4.5224799691987E-03 
574	 4.51400003481941E-03 
575	 4.49945245901287E-03 
576	 4.48951244633255E-03 
577	 4.47986775257663E-03 
578	 4.46465291856581E-03 
579	 4.4437142613988E-03 
580	 4.42250758236138E-03 
581	 4.41762546304764E-03 
582	 4.41441704772452E-03 
583	 4.40498139850307E-03 
584	 4.40160873438625E-03 
585	 4.39928207483417E-03 
586	 4.38628340276726E-03 
587	 4.37348462916661E-03 
588	 4.36505219759842E-03 
589	 4.36345112943517E-03 
590	 4.35957328897546E-03 
591	 4.34517768925995E-03 
592	 4.3317758415431E-03 
593	 4.32095712720893E-03 
594	 4.31127515576408E-03 
595	 4.2967569145655E-03 
596	 4.27484993011708E-03 
597	 4.25055753476005E-03 
598	 4.22920330000838E-03 
599	 4.21778608207855E-03 
600	 4.20203505492133E-03 
601	 4.18058662055433E-03 
602	 4.16526930360669E-03 
603	 4.1505075569489E-03 
604	 4.1315882778856E-03 
605	 4.10903834115365E-03 
606	 4.08691604560198E-03 
607	 4.07525198872222E-03 
608	 4.06377752316841E-03 
609	 4.04818611238647E-03 
610	 4.02751306849606E-03 
611	 4.00899630167425E-03 
612	 4.00161840199925E-03 
613	 3.9847018490078E-03 
614	 3.95904780830979E-03 
615	 3.94818420426385E-03 
616	 3.92871453288001E-03 
617	 3.88842410114381E-03 
618	 3.86305017736185E-03 
619	 3.85089952326064E-03 
620	 3.83804264018718E-03 
621	 3.82203006764506E-03 
622	 3.80071532485774E-03 
623	 3.77299684461888E-03 
624	 3.74780042745353E-03 
625	 3.73391036435923E-03 
626	 3.71237364635254E-03 
627	 3.68439334197032E-03 
628	 3.66723168808309E-03 
629	 3.64787001011968E-03 
630	 3.62074953593345E-03 
631	 3.59850135691307E-03 
632	 3.57803189910954E-03 
633	 3.55150119616581E-03 
634	 3.52768143419778E-03 
635	 3.50877650451823E-03 
636	 3.49318299503982E-03 
637	 3.4728866550964E-03 
638	 3.44214337648978E-03 
639	 3.41944644834042E-03 
640	 3.40374671202531E-03 
641	 3.38183178208902E-03 
642	 3.36667670154121E-03 
643	 3.35923801444093E-03 
644	 3.33248421030813E-03 
645	 3.30281591853592E-03 
646	 3.29487202815234E-03 
647	 3.27979704988426E-03 
648	 3.25536987554565E-03 
649	 3.24133060479846E-03 
650	 3.22700750465923E-03 
651	 3.20544826589145E-03 
652	 3.18240144088866E-03 
653	 3.16278810436918E-03 
654	 3.15542161863149E-03 
655	 3.14344147948646E-03 
656	 3.12305115581051E-03 
657	 3.10688006410698E-03 
658	 3.09591342131458E-03 
659	 3.08971609138441E-03 
660	 3.0714524553423E-03 
661	 3.04667729937711E-03 
662	 3.04376035091326E-03 
663	 3.03740325828247E-03 
664	 3.01587000596913E-03 
665	 2.99325961586227E-03 
666	 2.97915764465907E-03 
667	 2.98615731008291E-03 
668	 2.98529081847427E-03 
669	 2.97117297241652E-03 
670	 2.96206733997848E-03 
671	 2.9493990891569E-03 
672	 2.92772470659753E-03 
673	 2.92242731715819E-03 
674	 2.92464395858636E-03 
675	 2.89897256459235E-03 
676	 2.88796910819134E-03 
677	 2.9016217537315E-03 
678	 2.89916860835627E-03 
679	 2.88925684774966E-03 
680	 2.8863605826927E-03 
681	 2.88215999419125E-03 
682	 2.87484286827581E-03 
683	 2.86310887118643E-03 
684	 2.85585149053678E-03 
685	 2.85693342186058E-03 
686	 2.84972669008868E-03 
687	 2.83913080992984E-03 
688	 2.83832581726992E-03 
689	 2.83202633748354E-03 
690	 2.81970723464555E-03 
691	 2.82040718106753E-03 
692	 2.82380688835207E-03 
693	 2.82030041086176E-03 
694	 2.82064691378388E-03 
695	 2.82392370885781E-03 
696	 2.82386811739789E-03 
697	 2.81862630467256E-03 
698	 2.80904103541393E-03 
699	 2.80514881144089E-03 
700	 2.80570207459265E-03 
701	 2.8075913260303E-03 
702	 2.80665771010018E-03 
703	 2.80349179782991E-03 
704	 2.80471256693674E-03 
705	 2.80783919160811E-03 
706	 2.81005296059461E-03 
707	 2.80152203402411E-03 
708	 2.79040651325212E-03 
709	 2.79412104789986E-03 
710	 2.80321050106686E-03 
711	 2.81196787614912E-03 
712	 2.80922174175549E-03 
713	 2.80401918731857E-03 
714	 2.80546748836296E-03 
715	 2.81338659086044E-03 
716	 2.8227774623557E-03 
717	 2.82138355771226E-03 
718	 2.8151314942621E-03 
719	 2.80853791818571E-03 
720	 2.81133124289971E-03 
721	 2.81944861279336E-03 
722	 2.82640696035096E-03 
723	 2.82775576451692E-03 
724	 2.82596763415804E-03 
725	 2.83404163784867E-03 
726	 2.84260735823978E-03 
727	 2.84606849085162E-03 
728	 2.85142331465986E-03 
729	 2.85394906085385E-03 
730	 2.84284995053007E-03 
731	 2.84123707912531E-03 
732	 2.85139074433089E-03 
733	 2.84813827906376E-03 
734	 2.84419920246099E-03 
735	 2.85147644878841E-03 
736	 2.86614572002261E-03 
737	 2.88110255160675E-03 
738	 2.88102626168093E-03 
739	 2.87988825040407E-03 
740	 2.88178185864482E-03 
741	 2.87600607836533E-03 
742	 2.8726739929139E-03 
743	 2.88408705494654E-03 
744	 2.89779967525299E-03 
745	 2.90724427578113E-03 
746	 2.90250667092174E-03 
747	 2.89826809012853E-03 
748	 2.90285811319694E-03 
749	 2.91357277763499E-03 
750	 2.9205306963171E-03 
751	 2.90870466426832E-03 
752	 2.90907517579186E-03 
753	 2.92461945139826E-03 
754	 2.93026919086043E-03 
755	 2.93549734574209E-03 
756	 2.94640011425179E-03 
757	 2.95050016498084E-03 
758	 2.94989582730174E-03 
759	 2.9518618419824E-03 
760	 2.9607137991163E-03 
761	 2.97367670816877E-03 
762	 2.96953497044614E-03 
763	 2.96361104329548E-03 
764	 2.97072331757448E-03 
765	 2.9742146408901E-03 
766	 2.97441631673733E-03 
767	 2.9808320748229E-03 
768	 2.98568864916052E-03 
769	 2.98692716315833E-03 
770	 2.99134509918062E-03 
771	 2.9974279358761E-03 
772	 3.00274121109799E-03 
773	 3.00584193745073E-03 
774	 3.00697176307853E-03 
775	 3.00809478840857E-03 
776	 3.0097827817831E-03 
777	 3.01201121990461E-03 
778	 3.01106540068169E-03 
779	 3.01172572858492E-03 
780	 3.02131882635588E-03 
781	 3.03620876181184E-03 
782	 3.04874998358755E-03 
783	 3.0363237973299E-03 
784	 3.02485602566794E-03 
785	 3.03201838763449E-03 
786	 3.05150464674579E-03 
787	 3.06601013489277E-03 
788	 3.04582148820153E-03 
789	 3.03914080256935E-03 
790	 3.05430246598859E-03 
791	 3.05813000208136E-03 
792	 3.05970626706547E-03 
793	 3.06635993109928E-03 
794	 3.0686267270846E-03 
795	 3.07049394793926E-03 
796	 3.08450002259331E-03 
797	 3.0917647554812E-03 
798	 3.08882610029823E-03 
799	 3.09376126876963E-03 
800	 3.09577374113256E-03 
801	 3.08496849849779E-03 
802	 3.07836482100179E-03 
803	 3.08030047127686E-03 
804	 3.09422292041595E-03 
805	 3.10203432543544E-03 
806	 3.09801720686433E-03 
807	 3.09504709907861E-03 
808	 3.09492035895359E-03 
809	 3.09848435173153E-03 
810	 3.10438640023564E-03 
811	 3.11227115313492E-03 
812	 3.12260238894484E-03 
813	 3.13359952210411E-03 
814	 3.14143847278075E-03 
815	 3.13118603494865E-03 
816	 3.11738210913341E-03 
817	 3.11852847323816E-03 
818	 3.12408292406947E-03 
819	 3.13091927082844E-03 
820	 3.13696091746569E-03 
821	 3.14251252489313E-03 
822	 3.14744961591083E-03 
823	 3.15163532552675E-03 
824	 3.15163786101786E-03 
825	 3.14346031161772E-03 
826	 3.14940843767934E-03 
827	 3.16360129497274E-03 
828	 3.14668392917465E-03 
829	 3.14419450674106E-03 
830	 3.17245086824784E-03 
831	 3.16945445678889E-03 
832	 3.15401197103327E-03 
833	 3.16062564432655E-03 
834	 3.16550452911399E-03 
835	 3.1661956708328E-03 
836	 3.17393927265514E-03 
837	 3.17694468593555E-03 
838	 3.17018640269053E-03 
839	 3.16525939522008E-03 
840	 3.16820361318316E-03 
841	 3.18493343006801E-03 
842	 3.20409206419517E-03 
843	 3.21413333632857E-03 
844	 3.18905433951511E-03 
845	 3.16683363646723E-03 
846	 3.17017495805102E-03 
847	 3.19162030541666E-03 
848	 3.21487143055875E-03 
849	 3.21898566644582E-03 
850	 3.20767373370201E-03 
851	 3.1914247563971E-03 
852	 3.20141767192144E-03 
853	 3.20834416080373E-03 
854	 3.19798749884515E-03 
855	 3.19052395079118E-03 
856	 3.18926447032499E-03 
857	 3.19533681877842E-03 
858	 3.2077062841877E-03 
859	 3.22052447689812E-03 
860	 3.2165589528551E-03 
861	 0.003219948194454 
862	 3.23684386696146E-03 
863	 3.21846423643343E-03 
864	 3.19078189750725E-03 
865	 3.19326495492129E-03 
866	 3.20128323912176E-03 
867	 3.20590415607542E-03 
868	 3.19492361841319E-03 
869	 3.19845730494241E-03 
870	 3.22598778165201E-03 
871	 3.23984085322079E-03 
872	 3.24152210469891E-03 
873	 3.23769426731085E-03 
874	 3.22646994858764E-03 
875	 0.003213042693344 
876	 3.20751143806265E-03 
877	 3.22074677293826E-03 
878	 3.25044870779025E-03 
879	 3.25648459663922E-03 
880	 3.24937176908375E-03 
881	 3.24444880242545E-03 
882	 3.2344412981158E-03 
883	 3.22585786882553E-03 
884	 3.23803509772061E-03 
885	 3.2489145256738E-03 
886	 3.24819468120961E-03 
887	 0.00322740349746 
888	 3.21949130325602E-03 
889	 3.2505507914546E-03 
890	 3.24281935773885E-03 
891	 3.21161738875755E-03 
892	 3.22075154140541E-03 
893	 3.24415084469642E-03 
894	 3.2668404058224E-03 
895	 3.26262094153556E-03 
896	 3.24701720783319E-03 
897	 3.23410910307716E-03 
898	 3.22401819122467E-03 
899	 3.22137659520872E-03 
900	 3.2333783845955E-03 
901	 3.23946084359706E-03 
902	 3.23509533168272E-03 
903	 3.22743793773845E-03 
904	 3.22921253413748E-03 
905	 3.24592734114521E-03 
906	 3.25284672354848E-03 
907	 3.2510035180661E-03 
908	 3.24672941455403E-03 
909	 3.24475871763919E-03 
910	 3.24455797603935E-03 
911	 3.24059323757731E-03 
912	 3.22675492651821E-03 
913	 3.20711798646271E-03 
914	 3.22357956709957E-03 
915	 3.24225366674402E-03 
916	 3.22412740177085E-03 
917	 3.23044768069238E-03 
918	 3.25251360175105E-03 
919	 3.23607319209894E-03 
920	 3.2241578112162E-03 
921	 3.22890278922572E-03 
922	 3.23364342960065E-03 
923	 3.23478860611091E-03 
924	 3.22960566031024E-03 
925	 3.2186699201467E-03 
926	 3.20389374320328E-03 
927	 3.18736527067403E-03 
928	 3.18813825874783E-03 
929	 3.2039734881423E-03 
930	 3.20585802698068E-03 
931	 3.20034248650144E-03 
932	 3.19358969866686E-03 
933	 3.2033913734667E-03 
934	 3.20363285586087E-03 
935	 3.16110547896877E-03 
936	 3.15134703576652E-03 
937	 3.17512098970587E-03 
938	 3.18509272616295E-03 
939	 3.18573565194567E-03 
940	 3.18401822952816E-03 
941	 3.21780567727185E-03 
942	 3.24066866947187E-03 
943	 3.21383139035146E-03 
944	 3.19893774072484E-03 
945	 3.19257591036127E-03 
946	 3.16710385744246E-03 
947	 3.17120200360909E-03 
948	 3.2029482846079E-03 
949	 3.20708843844398E-03 
950	 3.18618995737581E-03 
951	 3.15082600211065E-03 
952	 3.16023662899237E-03 
953	 3.17466073871575E-03 
954	 3.1426457810007E-03 
955	 3.16901194817243E-03 
956	 3.23536701567148E-03 
957	 3.24312116485524E-03 
958	 3.21598048110908E-03 
959	 3.17443701034455E-03 
960	 3.18284319274339E-03 
961	 3.18204709022903E-03 
962	 3.13394073657473E-03 
963	 3.12716955174223E-03 
964	 3.1510979984545E-03 
965	 3.17025719936232E-03 
966	 3.16605996240987E-03 
967	 3.14143277076162E-03 
968	 3.12032964170806E-03 
969	 3.12404706432018E-03 
970	 3.16145806807882E-03 
971	 3.22787725617757E-03 
972	 3.24895018829544E-03 
973	 3.17167798472273E-03 
974	 3.16389396458006E-03 
975	 3.2000069934387E-03 
976	 3.18153815822681E-03 
977	 3.16794935725636E-03 
978	 3.16444249378141E-03 
979	 3.1357376900346E-03 
980	 3.10726828272786E-03 
981	 3.09579972628501E-03 
982	 3.11918985076579E-03 
983	 3.13283791313413E-03 
984	 3.09366869920672E-03 
985	 3.04968310886316E-03 
986	 3.03057747354838E-03 
987	 3.07574553380599E-03 
988	 0.003086100309132 
989	 3.05207507409977E-03 
990	 3.05486649159215E-03 
991	 3.06277951192134E-03 
992	 3.05703566726904E-03 
993	 3.02542531415235E-03 
994	 3.00680302624358E-03 
995	 3.03959767330265E-03 
996	 3.09152976090606E-03 
997	 3.11579878415148E-03 
998	 3.03656714746472E-03 
999	 2.99331544499066E-03 
1000	 3.01074027458171E-03 
1001	 3.00998766484032E-03 
1002	 3.04384859549185E-03 
1003	 3.11049810353224E-03 
1004	 3.05369367596216E-03 
1005	 2.97660379129195E-03 
1006	 2.98479288227897E-03 
1007	 2.95395861505992E-03 
1008	 2.94095155529471E-03 
1009	 3.07911614842228E-03 
1010	 3.11792158055201E-03 
1011	 3.03930359847851E-03 
1012	 3.01892487536695E-03 
1013	 3.03439236923345E-03 
1014	 3.05974526210989E-03 
1015	 2.98574550083753E-03 
1016	 2.9410027350246E-03 
1017	 3.02305548952216E-03 
1018	 3.06770364742543E-03 
1019	 3.03062530892441E-03 
1020	 2.89117638862498E-03 
1021	 2.87026945751819E-03 
1022	 2.95462998838068E-03 
1023	 2.94479046863874E-03 
1024	 2.94705420668174E-03 
1025	 2.97305803496694E-03 
1026	 2.91225540457494E-03 
1027	 2.92971153576602E-03 
1028	 3.09944623521772E-03 
1029	 3.14785313006377E-03 
1030	 3.10231518816822E-03 
1031	 3.03398294988821E-03 
1032	 2.93635905304129E-03 
1033	 2.89771508921401E-03 
1034	 3.08563000242442E-03 
1035	 3.13352483812874E-03 
1036	 2.98511505431574E-03 
1037	 2.8304753319545E-03 
1038	 2.81351639269586E-03 
1039	 2.95261801164831E-03 
1040	 2.93841649168075E-03 
1041	 2.85613870069226E-03 
1042	 2.8003102554487E-03 
1043	 2.81508790079625E-03 
1044	 2.86883012693264E-03 
1045	 2.90934023280764E-03 
1046	 3.05795425814905E-03 
1047	 3.22034871851261E-03 
1048	 3.13700450954207E-03 
1049	 2.95580705601166E-03 
1050	 2.79824600286199E-03 
1051	 2.92486788130112E-03 
1052	 2.99168607024881E-03 
1053	 2.84836940005955E-03 
1054	 2.72160683671844E-03 
1055	 2.64731329827881E-03 
1056	 2.63082039930002E-03 
1057	 2.52411231368319E-03 
1058	 2.42359109657974E-03 
1059	 2.48678567527873E-03 
1060	 2.63385926006292E-03 
1061	 2.81289585632414E-03 
1062	 2.9600846030486E-03 
1063	 2.9687530252405E-03 
1064	 2.85454566777395E-03 
1065	 2.81557036629889E-03 
1066	 2.70364956155398E-03 
1067	 2.53714771795843E-03 
1068	 2.72352743065029E-03 
1069	 2.99611313389074E-03 
1070	 3.09855522050957E-03 
1071	 2.86295155143985E-03 
1072	 2.6230966695781E-03 
1073	 2.78438731901419E-03 
1074	 3.08587390413145E-03 
1075	 3.2113414891264E-03 
